"time","tempc@tpf_st_chamber","press@tpf_st_chamber","out2@division","tau@tpf_st_chamber","dm2@tpf_pump","torque@expseu_"
0,19.904,0.02337,0.24,25,0.130321,0.554211
0.1,20.7769,0.0246641,0.240873,25.0873,0.130355,0.571176
0.2,21.6454,0.0260134,0.241749,25.1749,0.130389,0.588829
0.3,22.5095,0.0274193,0.242627,25.2627,0.130422,0.606707
0.4,23.3692,0.0288832,0.243508,25.3508,0.130456,0.624799
0.5,24.2193,0.0303973,0.244375,25.4375,0.123965,0.642972
0.6,25.0467,0.0319371,0.245189,25.5189,0.115494,0.660889
0.7,25.8527,0.0335017,0.245952,25.5952,0.107559,0.67854
0.8,26.6388,0.0350917,0.246666,25.6666,0.100125,0.695934
0.9,27.4067,0.0367077,0.247335,25.7335,0.0931612,0.713084
1,28.1578,0.0383505,0.247961,25.7961,0.0866387,0.729997
1.1,28.8933,0.0400209,0.248548,25.8548,0.0805294,0.746685
1.2,29.6145,0.0417199,0.249097,25.9097,0.0748072,0.763156
1.3,30.3225,0.0434482,0.249611,25.9611,0.0694477,0.779419
1.4,31.0184,0.0452071,0.250092,26.0092,0.0644279,0.795484
1.5,31.703,0.0469976,0.250543,26.0543,0.0597262,0.811357
1.6,32.3773,0.0488207,0.250965,26.0965,0.0553226,0.827047
1.7,33.042,0.0506778,0.25136,26.136,0.0511978,0.84256
1.8,33.6979,0.0525699,0.25173,26.173,0.0473343,0.857902
1.9,34.3457,0.0544983,0.252077,26.2077,0.0437152,0.873079
2,34.986,0.0564643,0.252402,26.2402,0.040325,0.888096
2.1,35.6195,0.0584692,0.252706,26.2706,0.037149,0.902956
2.2,36.2465,0.0605143,0.25299,26.299,0.0341734,0.917665
2.3,36.8677,0.062601,0.253257,26.3257,0.0313855,0.932224
2.4,37.4835,0.0647307,0.253507,26.3507,0.028773,0.946637
2.5,38.0943,0.0669047,0.253741,26.3741,0.0263248,0.960905
2.6,38.7006,0.0691245,0.25396,26.396,0.0240303,0.975029
2.7,39.3027,0.0713915,0.254165,26.4165,0.0218795,0.98901
2.8,39.9008,0.0737072,0.254358,26.4358,0.0198632,1.00285
2.9,40.4955,0.0760731,0.254538,26.4538,0.0179727,1.01654
3,41.0868,0.0784906,0.254708,26.4708,0.0161998,1.03009
3.1,41.6752,0.0809613,0.254866,26.4866,0.014537,1.0435
3.2,42.2608,0.0834868,0.255015,26.5015,0.0129771,1.05675
3.3,42.8439,0.0860685,0.255155,26.5155,0.0115135,1.06985
3.4,43.4247,0.088708,0.255285,26.5285,0.0101399,1.0828
3.5,44.0034,0.0914069,0.255408,26.5408,0.00885053,1.09559
3.6,44.5802,0.0941669,0.255524,26.5524,0.00763987,1.10822
3.7,45.1552,0.0969895,0.255632,26.5632,0.00650283,1.12068
3.8,45.7287,0.0998764,0.255734,26.5734,0.00543462,1.13297
3.9,46.3006,0.102829,0.255829,26.5829,0.00443075,1.14508
4,46.8713,0.10585,0.255919,26.5919,0.00348672,1.15701
4.1,47.4408,0.10894,0.256003,26.6003,0.00259673,1.16875
4.2,48.0092,0.1121,0.256082,26.6082,0.00174901,1.18029
4.3,48.5766,0.115334,0.256157,26.6157,0.000925627,1.19162
4.4,49.143,0.118641,0.256227,26.6227,0.000190454,1.20273
4.5,49.709,0.122027,0.256294,26.6294,0,1.21364
4.6,50.2752,0.125497,0.256361,26.6361,0,1.22434
4.7,50.8416,0.129052,0.256429,26.6429,0,1.23482
4.8,51.4083,0.132694,0.256498,26.6498,0,1.24507
4.9,51.9752,0.136426,0.256567,26.6567,0,1.25509
5,52.5423,0.140249,0.256637,26.6637,0,1.26484
5.1,53.1096,0.144164,0.256708,26.6708,0,1.27433
5.2,53.6772,0.148174,0.256779,26.6779,0,1.28354
5.3,54.2449,0.152281,0.25685,26.685,0,1.29246
5.4,54.8128,0.156485,0.256923,26.6923,0,1.30106
5.5,55.3809,0.16079,0.256996,26.6996,0,1.30934
5.6,55.9492,0.165197,0.257069,26.7069,0,1.31728
5.7,56.5177,0.169708,0.257143,26.7143,0,1.32486
5.8,57.0863,0.174326,0.257218,26.7218,0,1.33208
5.9,57.6551,0.179051,0.257293,26.7293,0,1.33891
6,58.224,0.183886,0.257369,26.7369,0,1.34534
6.1,58.7931,0.188834,0.257445,26.7445,0,1.35135
6.2,59.3624,0.193896,0.257522,26.7522,0,1.35692
6.3,59.9317,0.199074,0.2576,26.76,0,1.36204
6.4,60.5013,0.20437,0.257678,26.7678,0,1.3667
6.5,61.0709,0.209788,0.257756,26.7756,0,1.37087
6.6,61.6406,0.215328,0.257835,26.7835,0,1.37453
6.7,62.2105,0.220993,0.257915,26.7915,0,1.37767
6.8,62.7805,0.226786,0.257995,26.7995,0,1.38026
6.9,63.3505,0.232708,0.258076,26.8076,0,1.3823
7,63.9207,0.238762,0.258157,26.8157,0,1.38376
7.1,64.491,0.24495,0.258239,26.8239,0,1.38462
7.2,65.0613,0.251274,0.258322,26.8322,0,1.38485
7.3,65.6317,0.257738,0.258404,26.8404,0,1.38445
7.4,66.2022,0.264343,0.258488,26.8488,0,1.38339
7.5,66.7727,0.271091,0.258572,26.8572,0,1.38165
7.6,67.3433,0.277986,0.258656,26.8656,0,1.3792
7.7,67.914,0.285029,0.258741,26.8741,0,1.37603
7.8,68.4847,0.292224,0.258827,26.8827,0,1.37211
7.9,69.0555,0.299572,0.258912,26.8912,0,1.36743
8,69.6263,0.307076,0.258999,26.8999,0,1.36195
8.1,70.1971,0.314739,0.259086,26.9086,0,1.35566
8.2,70.7679,0.322564,0.259173,26.9173,0,1.34853
8.3,71.3388,0.330553,0.259261,26.9261,0,1.34054
8.4,71.9097,0.338708,0.25935,26.935,0,1.33167
8.5,72.4806,0.347033,0.259438,26.9438,0,1.32188
8.6,73.0515,0.355531,0.259528,26.9528,0,1.31116
8.7,73.6224,0.364203,0.259618,26.9618,0,1.29949
8.8,74.1933,0.373052,0.259708,26.9708,0,1.28682
8.9,74.7642,0.382082,0.259799,26.9799,0,1.27315
9,75.335,0.391296,0.25989,26.989,0,1.25844
9.1,75.9059,0.400695,0.259981,26.9981,0,1.24267
9.2,76.4767,0.410284,0.260074,27.0074,0,1.22581
9.3,77.0474,0.420064,0.260166,27.0166,0,1.20783
9.4,77.6182,0.43004,0.260259,27.0259,0,1.18871
9.5,78.1889,0.440213,0.260353,27.0353,0,1.16842
9.6,78.7595,0.450586,0.260447,27.0447,0,1.14692
9.7,79.3301,0.461164,0.260541,27.0541,0,1.1242
9.8,79.9006,0.471948,0.260636,27.0636,0,1.10022
9.9,80.4711,0.482942,0.260731,27.0731,0,1.07495
10,81.0415,0.49415,0.260827,27.0827,0,1.04837
10.1,81.6118,0.505573,0.260923,27.0923,0,1.02044
10.2,82.1821,0.517215,0.261019,27.1019,0,0.991134
10.3,82.7522,0.529079,0.261116,27.1116,0,0.960421
10.4,83.3223,0.541169,0.261214,27.1214,0,0.928269
10.5,83.8923,0.553487,0.261311,27.1311,0,0.894647
10.6,84.4621,0.566038,0.261409,27.141,0,0.859523
10.7,85.0319,0.578823,0.261508,27.1508,0,0.822864
10.8,85.6016,0.591847,0.261607,27.1607,0,0.784636
10.9,86.1711,0.605112,0.261706,27.1706,0,0.744803
11,86.7405,0.618623,0.261806,27.1806,0,0.703327
11.1,87.3098,0.632382,0.261906,27.1906,0,0.66017
11.2,87.879,0.646392,0.262007,27.2007,0,0.615283
11.3,88.448,0.660658,0.262108,27.2108,0,0.56861
11.4,89.0169,0.675182,0.262209,27.2209,0,0.520081
11.5,89.5857,0.689967,0.262311,27.2311,0,0.469603
11.6,90.1543,0.705019,0.262413,27.2413,0,0.417047
11.7,90.7227,0.720338,0.262516,27.2516,0,0.362242
11.8,91.291,0.735931,0.262618,27.2618,0,0.304987
11.9,91.8591,0.751799,0.262722,27.2722,0,0.245124
12,92.4271,0.767946,0.262825,27.2825,0,0.182813
12.1,92.9949,0.784376,0.262929,27.2929,0,0.119194
12.2,93.5625,0.801093,0.263033,27.3033,0,0.0570361
12.3,94.1299,0.818097,0.263138,27.3138,0,0.000975263
12.4,94.6963,0.835373,0.263242,27.3242,0,-0.0923865
12.5,95.2625,0.852942,0.263347,27.3347,0,-0.17543
12.6,95.8284,0.870811,0.263452,27.3452,0,-0.265032
12.7,96.3942,0.888983,0.263558,27.3558,0,-0.35887
12.8,96.9597,0.907462,0.263663,27.3663,0,-0.45585
12.9,97.525,0.926251,0.263769,27.3769,0,-0.555792
13,98.0901,0.945354,0.263876,27.3876,0,-0.658709
13.1,98.6549,0.964776,0.263982,27.3982,0,-0.764641
13.2,99.2195,0.984518,0.264089,27.4089,0,-0.873638
13.3,99.7839,1.00459,0.264197,27.4197,0,-0.985752
13.4,100.348,1.02498,0.264304,27.4304,0,-1.10103
13.5,100.912,1.04571,0.264412,27.4412,0,-1.21953
13.6,101.475,1.06677,0.26452,27.452,0,-1.34129
13.7,102.039,1.08818,0.264629,27.4629,0,-1.46638
13.8,102.602,1.10993,0.264738,27.4738,0,-1.59483
13.9,103.164,1.13202,0.264847,27.4847,0,-1.72671
14,103.727,1.15447,0.264956,27.4956,0,-1.86206
14.1,104.289,1.17727,0.265066,27.5066,0,-2.00093
14.2,104.851,1.20043,0.265175,27.5175,0,-2.14337
14.3,105.412,1.22395,0.265286,27.5286,0,-2.28945
14.4,105.974,1.24784,0.265396,27.5396,0,-2.4392
14.5,106.535,1.2721,0.265507,27.5507,0,-2.59269
14.6,107.095,1.29673,0.265617,27.5617,0,-2.75004
14.7,107.656,1.32173,0.265729,27.5729,0,-2.91169
14.8,108.215,1.34712,0.26584,27.584,0,-3.07778
14.9,108.775,1.3729,0.265952,27.5952,0,-3.2484
15,109.334,1.39906,0.266063,27.6063,0,-3.4236
15.1,109.893,1.42562,0.266175,27.6175,0,-3.60346
15.2,110.452,1.45257,0.266288,27.6288,0,-3.78807
15.3,111.01,1.47992,0.2664,27.64,0,-3.97751
15.4,111.568,1.50767,0.266513,27.6513,0,-4.17185
15.5,112.125,1.53583,0.266626,27.6626,0,-4.37119
15.6,112.682,1.5644,0.266739,27.6739,0,-4.57559
15.7,113.238,1.59338,0.266852,27.6852,0,-4.78514
15.8,113.795,1.62278,0.266965,27.6965,0,-4.99993
15.9,114.35,1.65261,0.267079,27.7079,0,-5.22003
16,114.906,1.68286,0.267193,27.7193,0,-5.44553
16.1,115.461,1.71354,0.267307,27.7307,0,-5.67649
16.2,116.015,1.74465,0.267421,27.7421,0,-5.91305
16.3,116.569,1.77619,0.267535,27.7535,0,-6.15529
16.4,117.122,1.80817,0.267649,27.7649,0,-6.4033
16.5,117.675,1.8406,0.267764,27.7764,0,-6.65716
16.6,118.228,1.87347,0.267878,27.7878,0,-6.91697
16.7,118.78,1.90679,0.267993,27.7993,0,-7.1828
16.8,119.332,1.94056,0.268108,27.8108,0,-7.45474
16.9,119.883,1.97479,0.268223,27.8223,0,-7.73289
17,120.433,2.00948,0.268337,27.8337,0,-8.01731
17.1,120.983,2.04463,0.268453,27.8453,0,-8.30809
17.2,121.532,2.08025,0.268568,27.8568,0,-8.60537
17.3,122.081,2.11632,0.268683,27.8683,0,-8.90923
17.4,122.629,2.15286,0.268798,27.8798,0,-9.21977
17.5,123.177,2.18988,0.268913,27.8913,0,-9.53705
17.6,123.723,2.22736,0.269028,27.9028,0,-9.86117
17.7,124.27,2.26532,0.269143,27.9143,0,-10.1922
17.8,124.815,2.30377,0.269258,27.9259,0,-10.5302
17.9,125.36,2.34269,0.269374,27.9374,0,-10.8753
18,125.904,2.3821,0.269489,27.9489,0,-11.2276
18.1,126.447,2.42196,0.269604,27.9604,0,-11.5867
18.2,126.988,2.46223,0.269718,27.9718,0,-11.9528
18.3,127.528,2.50291,0.269833,27.9833,0,-12.3257
18.4,128.065,2.544,0.269947,27.9947,0,-12.7055
18.5,128.601,2.58551,0.270061,28.0061,0,-13.0922
18.6,129.136,2.62742,0.270174,28.0174,0,-13.4859
18.7,129.668,2.66974,0.270287,28.0287,0,-13.8865
18.8,130.199,2.71246,0.2704,28.04,0,-14.2942
18.9,130.727,2.7556,0.270512,28.0512,0,-14.7088
19,131.255,2.79914,0.270624,28.0624,0,-15.1305
19.1,131.779,2.84305,0.270735,28.0735,0,-15.5589
19.2,132.301,2.88727,0.270846,28.0846,0,-15.9937
19.3,132.82,2.9318,0.270956,28.0956,0,-16.435
19.4,133.336,2.97664,0.271065,28.1065,0,-16.8827
19.5,133.85,3.02178,0.271174,28.1174,0,-17.3368
19.6,134.36,3.06721,0.271281,28.1281,0,-17.7971
19.7,134.868,3.11294,0.271388,28.1388,0,-18.2637
19.8,135.373,3.15896,0.271495,28.1495,0,-18.7364
19.9,135.875,3.20526,0.2716,28.16,0,-19.2152
20,136.374,3.25184,0.271705,28.1705,0,-19.6999
20.1,136.869,3.29864,0.271809,28.1809,0,-20.1901
20.2,137.361,3.34559,0.271911,28.1911,0,-20.6855
20.3,137.848,3.39271,0.272013,28.2013,0,-21.1858
20.4,138.332,3.43996,0.272113,28.2113,0,-21.691
20.5,138.812,3.48735,0.272213,28.2213,0,-22.2009
20.6,139.287,3.53486,0.272311,28.2311,0,-22.7152
20.7,139.759,3.58248,0.272407,28.2407,0,-23.234
20.8,140.227,3.63021,0.272503,28.2503,0,-23.7569
20.9,140.69,3.67804,0.272597,28.2597,0,-24.2839
21,141.15,3.72595,0.272691,28.2691,0,-24.8148
21.1,141.605,3.77388,0.272782,28.2782,0,-25.3486
21.2,142.055,3.82176,0.272872,28.2872,0,-25.8852
21.3,142.499,3.86958,0.272961,28.2961,0,-26.4242
21.4,142.939,3.91733,0.273048,28.3048,0,-26.9654
21.5,143.374,3.96499,0.273133,28.3133,0,-27.5086
21.6,143.803,4.01254,0.273217,28.3217,0,-28.0535
21.7,144.228,4.05998,0.273299,28.3298,0,-28.5999
21.8,144.647,4.10729,0.273379,28.3379,0,-29.1476
21.9,145.061,4.15446,0.273457,28.3457,0,-29.6963
22,145.47,4.20147,0.273534,28.3534,0,-30.2458
22.1,145.874,4.24826,0.273609,28.3609,0,-30.7951
22.2,146.271,4.29476,0.273682,28.3682,0,-31.3437
22.3,146.663,4.34095,0.273753,28.3753,0,-31.8916
22.4,147.048,4.38681,0.273821,28.3821,0,-32.4383
22.5,147.427,4.43232,0.273888,28.3888,0,-32.9835
22.6,147.8,4.47748,0.273952,28.3952,0,-33.5271
22.7,148.167,4.52227,0.274015,28.4015,0,-34.0687
22.8,148.529,4.56667,0.274075,28.4075,0,-34.6081
22.9,148.883,4.61066,0.274133,28.4133,0,-35.145
23,149.232,4.65423,0.274189,28.4189,0,-35.6791
23.1,149.575,4.69732,0.274242,28.4242,0,-36.2093
23.2,149.911,4.73986,0.274293,28.4293,0,-36.7354
23.3,150.24,4.78185,0.274342,28.4342,0,-37.2572
23.4,150.562,4.82326,0.274388,28.4388,0,-37.7742
23.5,150.877,4.86408,0.274432,28.4432,0,-38.2864
23.6,151.186,4.9043,0.274473,28.4473,0,-38.7933
23.7,151.488,4.94388,0.274512,28.4512,0,-39.2947
23.8,151.783,4.98283,0.274548,28.4548,0,-39.7904
23.9,152.071,5.02112,0.274581,28.4582,0,-40.2801
24,152.353,5.05874,0.274613,28.4613,0,-40.7635
24.1,152.627,5.09564,0.274641,28.4641,0,-41.2395
24.2,152.895,5.13179,0.274667,28.4667,0,-41.7082
24.3,153.155,5.16717,0.27469,28.469,0,-42.1694
24.4,153.408,5.20176,0.27471,28.471,0,-42.6227
24.5,153.654,5.23555,0.274727,28.4727,0,-43.068
24.6,153.893,5.26852,0.274742,28.4742,0,-43.505
24.7,154.124,5.30067,0.274754,28.4754,0,-43.9334
24.8,154.349,5.33197,0.274763,28.4763,0,-44.3531
24.9,154.566,5.36242,0.27477,28.4769,0,-44.7637
25,154.776,5.392,0.274773,28.4773,0,-45.1652
25.1,154.979,5.42069,0.274774,28.4774,0,-45.5566
25.2,155.175,5.44848,0.274772,28.4772,0,-45.9383
25.3,155.364,5.47536,0.274767,28.4767,0,-46.31
25.4,155.545,5.50132,0.274759,28.4759,0,-46.6716
25.5,155.72,5.52634,0.274748,28.4748,0,-47.0228
25.6,155.887,5.55041,0.274735,28.4735,0,-47.3636
25.7,156.047,5.57353,0.274719,28.4719,0,-47.6937
25.8,156.199,5.59569,0.274699,28.4699,0,-48.0129
25.9,156.345,5.61687,0.274677,28.4677,0,-48.3212
26,156.483,5.63707,0.274652,28.4652,0,-48.6184
26.1,156.615,5.65631,0.274625,28.4625,0,-48.9041
26.2,156.739,5.67458,0.274594,28.4594,0,-49.1786
26.3,156.857,5.69189,0.274561,28.4561,0,-49.442
26.4,156.968,5.70822,0.274525,28.4525,0,-49.6942
26.5,157.072,5.72358,0.274486,28.4486,0,-49.9349
26.6,157.169,5.73796,0.274444,28.4444,0,-50.1642
26.7,157.259,5.75135,0.2744,28.44,0,-50.3818
26.8,157.343,5.76375,0.274352,28.4352,0,-50.5879
26.9,157.419,5.77515,0.274302,28.4302,0,-50.7822
27,157.489,5.78556,0.27425,28.425,0,-50.9647
27.1,157.552,5.79501,0.274194,28.4194,0,-51.1356
27.2,157.609,5.80353,0.274136,28.4136,0,-51.2954
27.3,157.66,5.81112,0.274076,28.4076,0,-51.444
27.4,157.705,5.81778,0.274012,28.4012,0,-51.5815
27.5,157.743,5.82351,0.273947,28.3947,0,-51.7077
27.6,157.775,5.82831,0.273878,28.3878,0,-51.8227
27.7,157.801,5.83218,0.273808,28.3808,0,-51.9264
27.8,157.82,5.83512,0.273734,28.3734,0,-52.0189
27.9,157.834,5.83713,0.273659,28.3659,0,-52.1001
28,157.841,5.83822,0.27358,28.358,0,-52.17
28.1,157.842,5.83843,0.2735,28.35,0,-52.2296
28.2,157.838,5.83782,0.273417,28.3417,0,-52.279
28.3,157.829,5.83639,0.273332,28.3332,0,-52.3184
28.4,157.814,5.83414,0.273244,28.3244,0,-52.3477
28.5,157.793,5.83108,0.273155,28.3155,0,-52.3669
28.6,157.767,5.82721,0.273063,28.3063,0,-52.3762
28.7,157.736,5.82254,0.272969,28.2969,0,-52.3755
28.8,157.7,5.81706,0.272873,28.2873,0,-52.3649
28.9,157.658,5.81079,0.272775,28.2775,0,-52.3444
29,157.611,5.80372,0.272674,28.2674,0,-52.3142
29.1,157.558,5.79592,0.272572,28.2572,0,-52.2756
29.2,157.502,5.78745,0.272468,28.2468,0,-52.2286
29.3,157.44,5.77831,0.272362,28.2362,0,-52.1733
29.4,157.375,5.76851,0.272254,28.2254,0,-52.1097
29.5,157.304,5.75806,0.272145,28.2145,0,-52.038
29.6,157.23,5.74696,0.272033,28.2033,0,-51.9573
29.7,157.15,5.73522,0.27192,28.192,0,-51.8686
29.8,157.067,5.72284,0.271805,28.1805,0,-51.7719
29.9,156.979,5.70982,0.271689,28.1689,0,-51.6673
30,156.886,5.69618,0.271571,28.1571,0,-51.5549
30.1,156.79,5.68197,0.271451,28.1451,0,-51.4367
30.2,156.69,5.66726,0.27133,28.133,0,-51.3123
30.3,156.586,5.65206,0.271208,28.1208,0,-51.1817
30.4,156.479,5.63636,0.271084,28.1084,0,-51.0449
30.5,156.368,5.62019,0.270959,28.0959,0,-50.902
30.6,156.253,5.60353,0.270832,28.0832,0,-50.7531
30.7,156.135,5.5864,0.270705,28.0705,0,-50.5982
30.8,156.014,5.56881,0.270576,28.0576,0,-50.4375
30.9,155.889,5.55075,0.270445,28.0445,0,-50.2709
31,155.761,5.53224,0.270314,28.0314,0,-50.0986
31.1,155.629,5.51333,0.270181,28.0181,0,-49.9229
31.2,155.495,5.49408,0.270047,28.0047,0,-49.743
31.3,155.358,5.4745,0.269913,27.9913,0,-49.5588
31.4,155.218,5.45459,0.269777,27.9777,0,-49.3704
31.5,155.076,5.43435,0.269641,27.9641,0,-49.1778
31.6,154.931,5.4138,0.269504,27.9504,0,-48.9812
31.7,154.783,5.39293,0.269366,27.9366,0,-48.7805
31.8,154.633,5.37176,0.269226,27.9226,0,-48.5759
31.9,154.48,5.35028,0.269087,27.9087,0,-48.3675
32,154.324,5.3285,0.268946,27.8946,0,-48.1552
32.1,154.167,5.3066,0.268805,27.8805,0,-47.9441
32.2,154.01,5.28474,0.268663,27.8663,0,-47.7333
32.3,153.852,5.26292,0.268522,27.8522,0,-47.5228
32.4,153.695,5.24116,0.26838,27.838,0,-47.3126
32.5,153.537,5.21944,0.268238,27.8238,0,-47.1025
32.6,153.379,5.19778,0.268097,27.8097,0,-46.8927
32.7,153.221,5.17617,0.267955,27.7955,0,-46.6832
32.8,153.063,5.1546,0.267813,27.7813,0,-46.474
32.9,152.904,5.13309,0.267671,27.7671,0,-46.265
33,152.746,5.11164,0.267528,27.7528,0,-46.0564
33.1,152.593,5.09099,0.267388,27.7388,0,-45.8684
33.2,152.451,5.07198,0.26725,27.725,0,-45.698
33.3,152.322,5.05457,0.267115,27.7115,0,-45.5452
33.4,152.203,5.03876,0.266984,27.6984,0,-45.4103
33.5,152.097,5.02452,0.266855,27.6855,0,-45.293
33.6,152.001,5.01184,0.266729,27.6729,0,-45.1934
33.7,151.918,5.00071,0.266607,27.6607,0,-45.1112
33.8,151.845,4.99112,0.266487,27.6487,0,-45.0463
33.9,151.784,4.98304,0.266369,27.6369,0,-44.9987
34,151.735,4.97648,0.266255,27.6255,0,-44.9681
34.1,151.7,4.97182,0.266144,27.6144,0,-44.9703
34.2,151.682,4.96949,0.266037,27.6038,0,-45
34.3,151.682,4.96948,0.265936,27.5936,0,-45.0563
34.4,151.699,4.97178,0.265838,27.5838,0,-45.1391
34.5,151.734,4.97638,0.265745,27.5745,0,-45.2483
34.6,151.786,4.98329,0.265656,27.5656,0,-45.3841
34.7,151.856,4.9925,0.265572,27.5572,0,-45.5465
34.8,151.943,5.00401,0.265491,27.5491,0,-45.7356
34.9,152.046,5.01783,0.265415,27.5415,0,-45.9516
35,152.167,5.03397,0.265343,27.5343,0,-46.1946
35.1,152.306,5.05252,0.265275,27.5275,0,-46.4745
35.2,152.463,5.07357,0.265212,27.5212,0,-46.7851
35.3,152.638,5.09715,0.265153,27.5153,0,-47.1258
35.4,152.832,5.12328,0.265099,27.5099,0,-47.4968
35.5,153.043,5.15197,0.265049,27.5049,0,-47.8987
35.6,153.273,5.18326,0.265004,27.5004,0,-48.3317
35.7,153.52,5.21716,0.264963,27.4963,0,-48.7964
35.8,153.786,5.25372,0.264926,27.4926,0,-49.2933
35.9,154.069,5.29295,0.264894,27.4893,0,-49.8231
36,154.37,5.3349,0.264865,27.4865,0,-50.3862
36.1,154.683,5.3788,0.26484,27.484,0,-50.9728
36.2,155.002,5.42384,0.264816,27.4816,0,-51.5753
36.3,155.327,5.47003,0.264793,27.4793,0,-52.1937
36.4,155.657,5.51738,0.264771,27.4771,0,-52.828
36.5,155.994,5.56591,0.264751,27.4751,0,-53.4784
36.6,156.337,5.61564,0.264732,27.4732,0,-54.1452
36.7,156.685,5.66659,0.264714,27.4714,0,-54.8285
36.8,157.039,5.71877,0.264698,27.4698,0,-55.5286
36.9,157.399,5.7722,0.264683,27.4683,0,-56.2459
37,157.765,5.82691,0.264669,27.4669,0,-56.9806
37.1,158.133,5.8823,0.264655,27.4655,0,-57.72
37.2,158.498,5.93773,0.26464,27.464,0,-58.4622
37.3,158.861,5.9932,0.264625,27.4625,0,-59.2073
37.4,159.222,6.0487,0.264608,27.4608,0,-59.9552
37.5,159.58,6.10424,0.26459,27.459,0,-60.7056
37.6,159.935,6.1598,0.264572,27.4572,0,-61.4584
37.7,160.288,6.21539,0.264552,27.4552,0,-62.2135
37.8,160.639,6.271,0.264532,27.4532,0,-62.9709
37.9,160.987,6.32662,0.264511,27.4511,0,-63.7305
38,161.333,6.38227,0.264489,27.4489,0,-64.4922
38.1,161.676,6.43768,0.264465,27.4465,0,-65.2474
38.2,162.013,6.4926,0.26444,27.444,0,-65.9979
38.3,162.344,6.547,0.264413,27.4413,0,-66.7438
38.4,162.67,6.60089,0.264384,27.4384,0,-67.4851
38.5,162.991,6.65424,0.264353,27.4353,0,-68.2213
38.6,163.307,6.70705,0.264321,27.4321,0,-68.9523
38.7,163.617,6.7593,0.264286,27.4286,0,-69.6779
38.8,163.922,6.81099,0.26425,27.425,0,-70.3979
38.9,164.222,6.8621,0.264212,27.4212,0,-71.1121
39,164.517,6.91263,0.264173,27.4173,0,-71.8203
39.1,164.806,6.96249,0.264131,27.4131,0,-72.5166
39.2,165.089,7.01161,0.264088,27.4088,0,-73.2043
39.3,165.367,7.05996,0.264042,27.4042,0,-73.8834
39.4,165.638,7.10755,0.263994,27.3995,0,-74.5538
39.5,165.904,7.15435,0.263945,27.3945,0,-75.2153
39.6,166.163,7.20035,0.263893,27.3893,0,-75.8677
39.7,166.417,7.24555,0.263839,27.3839,0,-76.5107
39.8,166.665,7.28994,0.263783,27.3783,0,-77.1442
39.9,166.908,7.3335,0.263725,27.3725,0,-77.768
40,167.144,7.37622,0.263665,27.3665,0,-78.382
40.1,167.375,7.41812,0.263603,27.3603,0,-78.9822
40.2,167.601,7.4592,0.26354,27.354,0,-79.5722
40.3,167.821,7.49945,0.263474,27.3474,0,-80.152
