"time","h","der(h)","v","der(v)","g","e"
0,1,0,0,-9.81,9.81,0.7
0.04,0.9923482,-0.3924,-0.3924,-9.81,9.81,0.7
0.08,0.9690004,-0.7848,-0.7848,-9.81,9.81,0.7
0.12,0.9299566,-1.1772,-1.1772,-9.81,9.81,0.7
0.16,0.8752168,-1.5696,-1.5696,-9.81,9.81,0.7
0.2,0.804781,-1.962,-1.962,-9.81,9.81,0.7
0.24,0.7186492,-2.3544,-2.3544,-9.81,9.81,0.7
0.28,0.6168214,-2.7468,-2.7468,-9.81,9.81,0.7
0.32,0.4992976,-3.1392,-3.1392,-9.81,9.81,0.7
0.36,0.3660778,-3.5316,-3.5316,-9.81,9.81,0.7
0.4,0.217162,-3.924,-3.924,-9.81,9.81,0.7
0.44,0.052550200000001,-4.3164,-4.3164,-9.81,9.81,0.7
0.48,0.076218787000001,2.845881,2.845881,-9.81,9.81,0.7
0.52,0.182402227,2.453481,2.453481,-9.81,9.81,0.7
0.56,0.272889667,2.061081,2.061081,-9.81,9.81,0.7
0.6,0.347681107,1.668681,1.668681,-9.81,9.81,0.7
0.64,0.406776547,1.276281,1.276281,-9.81,9.81,0.7
0.68,0.450175987,0.88388099999999,0.88388099999999,-9.81,9.81,0.7
0.72,0.477879427,0.49148099999999,0.49148099999999,-9.81,9.81,0.7
0.76,0.489886867,0.099080999999989,0.099080999999989,-9.81,9.81,0.7
0.8,0.486198307,-0.29331900000001,-0.29331900000001,-9.81,9.81,0.7
0.84,0.466813747,-0.68571900000001,-0.68571900000001,-9.81,9.81,0.7
0.88,0.431733187,-1.078119,-1.078119,-9.81,9.81,0.7
0.92,0.380956627,-1.470519,-1.470519,-9.81,9.81,0.7
0.96,0.314484067,-1.862919,-1.862919,-9.81,9.81,0.7
1,0.232315507,-2.255319,-2.255319,-9.81,9.81,0.7
1.04,0.134450947,-2.647719,-2.647719,-9.81,9.81,0.7
1.08,0.020890386999995,-3.040119,-3.040119,-9.81,9.81,0.7
1.12,0.066036889899995,1.8524223,1.8524223,-9.81,9.81,0.7
1.16,0.1324819819,1.4600223,1.4600223,-9.81,9.81,0.7
1.2,0.1832310739,1.0676223,1.0676223,-9.81,9.81,0.7
1.24,0.2182841659,0.6752223,0.6752223,-9.81,9.81,0.7
1.28,0.2376412579,0.2828223,0.2828223,-9.81,9.81,0.7
1.32,0.24130234989999,-0.1095777,-0.1095777,-9.81,9.81,0.7
1.36,0.22926744189999,-0.5019777,-0.5019777,-9.81,9.81,0.7
1.4,0.20153653389999,-0.8943777,-0.8943777,-9.81,9.81,0.7
1.44,0.15810962589999,-1.2867777,-1.2867777,-9.81,9.81,0.7
1.48,0.098986717899994,-1.6791777,-1.6791777,-9.81,9.81,0.7
1.52,0.024167809899994,-2.0715777,-2.0715777,-9.81,9.81,0.7
1.56,0.037863472419994,1.25782839,1.25782839,-9.81,9.81,0.7
1.6,0.080524808019994,0.86542839,0.86542839,-9.81,9.81,0.7
1.64,0.10749014361999,0.47302839,0.47302839,-9.81,9.81,0.7
1.68,0.11875947921999,0.080628390000002,0.080628390000002,-9.81,9.81,0.7
1.72,0.11433281481999,-0.31177161,-0.31177161,-9.81,9.81,0.7
1.76,0.094210150419994,-0.70417161,-0.70417161,-9.81,9.81,0.7
1.8,0.058391486019994,-1.09657161,-1.09657161,-9.81,9.81,0.7
1.84,0.0068768216199945,-1.48897161,-1.48897161,-9.81,9.81,0.7
1.88,0.031178443014995,0.733265127,0.733265127,-9.81,9.81,0.7
1.92,0.052857248094995,0.340865127,0.340865127,-9.81,9.81,0.7
1.96,0.058840053174995,-0.051534872999998,-0.051534872999998,-9.81,9.81,0.7
2,0.049126858254995,-0.443934873,-0.443934873,-9.81,9.81,0.7
2.04,0.023717663334995,-0.836334873,-0.836334873,-9.81,9.81,0.7
2.08,0.010192882676495,0.6099594111,0.6099594111,-9.81,9.81,0.7
2.12,0.026939459120495,0.2175594111,0.2175594111,-9.81,9.81,0.7
2.16,0.027990035564495,-0.1748405889,-0.1748405889,-9.81,9.81,0.7
2.2,0.013344612008495,-0.5672405889,-0.5672405889,-9.81,9.81,0.7
2.24,0.0079791824739647,0.35488541223,0.35488541223,-9.81,9.81,0.7
2.28,0.014522798963165,-0.03751458777,-0.03751458777,-9.81,9.81,0.7
2.32,0.0053704154523648,-0.42991458777,-0.42991458777,-9.81,9.81,0.7
2.36,0.0065894383194168,0.108664211439,0.108664211439,-9.81,9.81,0.7
2.4,0.0032842067769767,-0.283735788561,-0.283735788561,-9.81,9.81,0.7
2.44,0.003591112610594,-0.0103379480073,-0.0103379480073,-9.81,9.81,0.7
2.48,0.0016078903412634,0.06511556360511,0.06511556360511,-9.81,9.81,0.7
2.52,0.00097528592979484,0.012298105476423,0.012298105476423,-9.81,9.81,0.7
2.56,0.00010710813644758,0.060569671683447,0.060569671683447,-9.81,9.81,0.7
2.6,-7.3195404247094e-06,0.037937452612578,0.037937452612578,-9.81,9.81,0.7
2.64,2.0383910081164e-05,0.0079742146394041,0.0079742146394041,-9.81,9.81,0.7
2.68,-2.4285923743237e-05,0.023959945927322,0.023959945927322,-9.81,9.81,0.7
2.72,1.6421605985854e-05,0.0056920988901175,0.0056920988901175,-9.81,9.81,0.7
2.76,1.5087421112857e-05,0.0040332579623736,0.0040332579623736,-9.81,9.81,0.7
2.8,1.8939179787443e-05,-0.013902644037211,-0.013902644037211,-9.81,9.81,0.7
2.84,-2.4492705604945e-05,0.026448618739316,0.026448618739316,-9.81,9.81,0.7
2.88,-1.2756773717515e-05,0.021994190675757,0.021994190675757,-9.81,9.81,0.7
2.92,1.7503424730278e-05,0.0080903729878315,0.0080903729878315,-9.81,9.81,0.7
2.96,2.2482783727848e-05,0.0022702797878482,0.0022702797878482,-9.81,9.81,0.7
3,1.4676175178617e-05,0.0051559304962676,0.0051559304962676,-9.81,9.81,0.7
3.04,1.8906291053488e-05,-0.016552035264869,-0.016552035264869,-9.81,9.81,0.7
3.08,-4.3250693333723e-06,0.02107765330733,0.02107765330733,-9.81,9.81,0.7
3.12,-2.5351231960752e-05,0.025938682774232,0.025938682774232,-9.81,9.81,0.7
3.16,2.903153597138e-05,0.0014067370952061,0.0014067370952061,-9.81,9.81,0.7
3.2,1.5233364313926e-05,0.0078238059432403,0.0078238059432403,-9.81,9.81,0.7
3.24,1.7875592020761e-05,0.0038577027202086,0.0038577027202086,-9.81,9.81,0.7
3.28,2.1886839194211e-05,-0.012792357315131,-0.012792357315131,-9.81,9.81,0.7
3.32,1.6415970860916e-05,-0.016195077941963,-0.016195077941963,-9.81,9.81,0.7
3.36,-1.2486393503536e-05,0.022663701176651,0.022663701176651,-9.81,9.81,0.7
3.4,1.843175014186e-05,0.0091310649121877,0.0091310649121877,-9.81,9.81,0.7
3.44,2.5186307270587e-05,0.0021845743329022,0.0021845743329022,-9.81,9.81,0.7
3.48,1.5033163369802e-05,0.0062588177020159,0.0062588177020159,-9.81,9.81,0.7
3.52,2.0356590930049e-05,-0.017693513768677,-0.017693513768677,-9.81,9.81,0.7
3.56,1.8501979272989e-05,-0.01333992763304,-0.01333992763304,-9.81,9.81,0.7
3.6,1.3674106682432e-05,-0.01563516418173,-0.01563516418173,-9.81,9.81,0.7
3.64,-1.6837195669048e-05,0.0229482403958,0.0229482403958,-9.81,9.81,0.7
3.68,1.6590515300603e-05,0.0080118028909722,0.0080118028909722,-9.81,9.81,0.7
3.72,2.000715613942e-05,0.003327401373176,0.003327401373176,-9.81,9.81,0.7
3.76,2.3687828263571e-05,-0.011247754718907,-0.011247754718907,-9.81,9.81,0.7
3.8,1.7589166708339e-05,-0.016322282607553,-0.016322282607553,-9.81,9.81,0.7
3.84,-7.8550535786726e-06,0.021605717080817,0.021605717080817,-9.81,9.81,0.7
3.88,-2.6902009948219e-05,0.025895194451811,0.025895194451811,-9.81,9.81,0.7
3.92,2.6390208407539e-05,0.0019251375355572,0.0019251375355572,-9.81,9.81,0.7
3.96,1.5826289041455e-05,0.0062801834378555,0.0062801834378555,-9.81,9.81,0.7
4,1.5589096736084e-05,0.0039848266711038,0.0039848266711038,-9.81,9.81,0.7
