    "time","tempc@tpf_st_chamber","press@tpf_st_chamber","out2@division","tau@tpf_st_chamber","dm2@tpf_pump","torque@expseu_"
         0, 19.903957,   0.02337,      0.24,        25,0.13032082,         0
       0.1, 20.206409,0.023811507,0.24084568, 25.084568, 0.1303548,         0
       0.2, 21.075548,0.025121038,0.24172007, 25.172007,0.13038868,0.57600807
       0.3, 21.940382,0.026486043,0.24259683, 25.259683,0.13042244,0.59364371
       0.4, 22.800806,0.027907854,0.24347588, 25.347588,0.13045608,0.61149728
       0.5, 23.651989,0.02937942,0.24434325, 25.434325,0.12429653,0.62944835
       0.6, 24.480725,0.030876692, 0.2451585,  25.51585,0.11581565,0.64715831
       0.7,  25.28786,0.03239839,0.24592207, 25.592207,0.10787012,0.66461122
       0.8, 26.075148,0.033945152,0.24663689, 25.663689, 0.1004297, 0.6818185
       0.9, 26.844075,0.03551747,0.24730644, 25.730644,0.093458471,0.69878829
         1, 27.596067,0.037116041,0.24793358, 25.793358,0.086926915,0.71552998
       1.1, 28.332585,0.03874198,0.24852048, 25.852048,0.080812667, 0.7320568
       1.2,  29.05479,0.040396064,0.24906985, 25.906985,0.075087751,0.74837351
       1.3, 29.763686,0.042078974,0.24958447, 25.958447,0.069723427,0.76449603
       1.4,  30.46038,0.043791884,0.25006631, 26.006631,0.064699235,0.78042954
       1.5, 31.145642,0.045535387,0.25051799, 26.051799,0.05998825,0.79616424
       1.6, 31.820492,0.047310924,0.25094093, 26.094093,0.055575635, 0.8117274
       1.7, 32.485735,0.049119627,0.25133698, 26.133698,0.051442418,0.82712037
       1.8,  33.14212,0.050962672,0.25170785, 26.170785,0.047570791,0.84234927
       1.9, 33.790336,0.052841274,0.25205516, 26.205516,0.043944057,0.85741964
         2, 34.431019,0.054756671,0.25238041, 26.238041,0.040546561,0.87233632
       2.1, 35.064755,0.056710128,0.25268503, 26.268503,0.037363741,0.88710354
       2.2, 35.692093,0.058702962,0.25297035, 26.297035,0.034381612,0.90172513
       2.3, 36.313534,0.06073649,0.25323761, 26.323761,0.031587407, 0.9162041
       2.4, 36.929542,0.062812059,0.25348797, 26.348797,0.028969052,0.93054288
       2.5, 37.540546,0.064931037,0.25372253, 26.372253,0.026515237,0.94474333
       2.6, 38.146959,0.067094864,0.25394233, 26.394233,0.024215069,0.95880709
       2.7, 38.749143,0.069304937,0.25414827, 26.414827,0.022059259, 0.9727348
       2.8,  39.34742,0.071562617, 0.2543413,  26.43413,0.020037955,0.98652594
       2.9, 39.942485,0.07387084,0.25452189, 26.452189,0.018146387, 1.0001924
         3, 40.534165,0.076229316,0.25469129, 26.469129,0.016371317, 1.0137181
       3.1, 41.122942,0.078640382,0.25485008, 26.485008,0.014706953, 1.0271085
       3.2, 41.708579,0.081103505,0.25499928, 26.499928,0.01314252, 1.0403459
       3.3, 42.291778,0.083622138,0.25513918, 26.513918,0.01167521, 1.0534419
       3.4, 42.872736,0.08619777,0.25527036, 26.527036,0.01029881,  1.066394
       3.5, 43.451505,0.08883132, 0.2553935,  26.53935,0.0090062987, 1.0791941
       3.6, 44.028584,0.091525821,0.25550902, 26.550902,0.0077933213, 1.0918465
       3.7, 44.603534,0.094280005,0.25561762, 26.561762,0.0066526191, 1.1043286
       3.8, 45.176874,0.097097146,0.25571961, 26.571961,0.0055809391, 1.1166464
       3.9,  45.74875,0.099978876,0.25581542, 26.581542,0.0045737741, 1.1287946
         4, 46.319299,0.10292684,0.25590545, 26.590545,0.0036267078, 1.1407671
       4.1, 46.888884,  0.105944,0.25599001, 26.599001,0.0027351799, 1.1525656
       4.2, 47.457136,0.10902945,0.25606955, 26.606955,0.0018873718, 1.1641669
       4.3, 48.024378,0.11218603,0.25614424, 26.614424,0.0010657371, 1.1755713
       4.4, 48.590696,0.11541536,0.25621431, 26.621431,0.00030524395, 1.1867705
       4.5, 49.156402,0.11872048,0.25628105, 26.628105,         0, 1.1977625
       4.6, 49.722248,0.12210726, 0.2563479,  26.63479,         0, 1.2085578
       4.7,  50.28834,0.12557803,0.25641538, 26.641538,         0, 1.2191476
       4.8, 50.854671,0.12913451,0.25648347, 26.648347,         0, 1.2295197
       4.9, 51.421234, 0.1327784,0.25655218, 26.655218,         0, 1.2396615
         5, 51.988023,0.13651147,0.25662151, 26.662151,         0, 1.2495603
       5.1, 52.555185,0.14033654,0.25669146, 26.669146,         0, 1.2592077
       5.2, 53.122584,0.14425459,0.25676203, 26.676203,         0, 1.2685862
       5.3, 53.690031,0.14826614,0.25683317, 26.683317,         0, 1.2776765
       5.4, 54.258054, 0.1523769,0.25690496, 26.690496,         0, 1.2864811
       5.5,  54.82588,0.15658317,0.25697729, 26.697729,         0, 1.2949621
       5.6, 55.394067,0.16089099,0.25705024, 26.705024,         0, 1.3031223
       5.7, 55.962276,0.16529979,0.25712375, 26.712375,         0, 1.3109365
       5.8, 56.530847,0.16981419,0.25719787, 26.719787,         0, 1.3184004
       5.9, 57.099797,0.17443648,0.25727259, 26.727259,         0, 1.3254984
         6, 57.668735,0.17916557,0.25734787, 26.734787,         0, 1.3322041
       6.1, 58.237719,0.18400391, 0.2574237,  26.74237,         0, 1.3385028
       6.2, 58.807122,0.18895686,0.25750014, 26.750014,         0, 1.3443891
       6.3, 59.376258,0.19402054,0.25757708, 26.757708,         0, 1.3498272
       6.4, 59.945529,0.19920056,0.25765458, 26.765458,         0, 1.3548115
       6.5, 60.514931, 0.2044991,0.25773263, 26.773263,         0, 1.3593248
       6.6, 61.084458,0.20991829,0.25781124, 26.781124,         0, 1.3633495
       6.7, 61.654104,0.21546034, 0.2578904,  26.78904,         0, 1.3668675
       6.8, 62.223862,0.22112745, 0.2579701,  26.79701,         0, 1.3698605
       6.9, 62.793724,0.22692183,0.25805034, 26.805034,         0, 1.3723099
         7, 63.363687,0.23284578,0.25813111, 26.813111,         0, 1.3741967
       7.1, 63.933889,0.23890314,0.25821244, 26.821244,         0,  1.375505
       7.2, 64.504038, 0.2450932,0.25829428, 26.829428,         0, 1.3762085
       7.3,  65.07427,0.25141978,0.25837664, 26.837664,         0, 1.3762905
       7.4, 65.644579,0.25788526,0.25845953, 26.845953,         0, 1.3757309
       7.5,  66.21496,0.26449204,0.25854293, 26.854293,         0, 1.3745089
       7.6, 66.785406,0.27124255,0.25862685, 26.862685,         0, 1.3726038
       7.7, 67.355907,0.27813917,0.25871129, 26.871129,         0,  1.369994
       7.8, 67.926467,0.28518451,0.25879622, 26.879622,         0, 1.3666582
       7.9, 68.497076,  0.292381,0.25888167, 26.888167,         0, 1.3625742
         8, 69.067735,0.29973129,0.25896761, 26.896761,         0, 1.3577198
       8.1, 69.638558, 0.3072395,0.25905408, 26.905408,         0, 1.3520744
       8.2, 70.209334,0.31490556,0.25914102, 26.914102,         0, 1.3456116
       8.3, 70.780157,0.32273339,0.25922846, 26.922846,         0, 1.3383095
       8.4, 71.351077,0.33072642, 0.2593164,  26.93164,         0, 1.3301453
       8.5, 71.921927,0.33888507,0.25940481, 26.940481,         0, 1.3210927
       8.6, 72.492895,0.34721478,0.25949371, 26.949371,         0, 1.3111296
       8.7, 73.063693,0.35571413,0.25958307, 26.958307,         0, 1.3002286
       8.8, 73.634615,0.36439031,0.25967291, 26.967291,         0, 1.2883675
       8.9, 74.205522,0.37324409,0.25976323, 26.976323,         0, 1.2755194
         9, 74.776304,0.38227661,  0.259854,   26.9854,         0,  1.261658
       9.1, 75.347178,0.39149418,0.25994524, 26.994524,         0, 1.2467589
       9.2, 75.918035,0.40089807,0.26003695, 27.003695,         0, 1.2307946
       9.3, 76.488741,0.41048895,0.26012909, 27.012909,         0, 1.2137384
       9.4, 77.059414,0.42027172,0.26022169, 27.022169,         0, 1.1955636
       9.5, 77.630047,0.43024929,0.26031473, 27.031473,         0, 1.1762426
       9.6, 78.200637,0.44042463,0.26040823, 27.040823,         0, 1.1557478
       9.7, 78.771177, 0.4508007,0.26050216, 27.050216,         0, 1.1340509
       9.8, 79.341664,0.46138052,0.26059654, 27.059654,         0, 1.1111234
       9.9, 79.912091, 0.4721671,0.26069135, 27.069135,         0, 1.0869365
        10, 80.482454,0.48316349,0.26078659, 27.078659,         0, 1.0614609
      10.1,  81.05283,0.49437442,0.26088228, 27.088228,         0, 1.0346661
      10.2, 81.623049,0.50579971,0.26097838, 27.097838,         0,  1.006524
      10.3, 82.193187,0.51744411,0.26107491, 27.107491,         0,0.97700344
      10.4, 82.763241,0.52931075,0.26117185, 27.117185,         0,0.94607379
      10.5, 83.333204,0.54140281,0.26126921, 27.126921,         0,0.91370385
      10.6, 83.903073,0.55372349,0.26136698, 27.136698,         0,0.87986198
      10.7, 84.472841,0.56627601,0.26146517, 27.146517,         0,0.84451591
      10.8, 85.042505,0.57906361,0.26156376, 27.156376,         0, 0.8076326
      10.9,  85.61206,0.59208956,0.26166275, 27.166275,         0,0.76917786
        11,   86.1815,0.60535714,0.26176215, 27.176215,         0,0.72911582
      11.1, 86.750883, 0.6188712,0.26186195, 27.186195,         0,0.68740596
      11.2,  87.32008,0.63263207,0.26196214, 27.196214,         0, 0.6440094
      11.3, 87.889245,  0.646647,0.26206273, 27.206273,         0,0.59887526
      11.4, 88.458177,0.66091455, 0.2621637,  27.21637,         0,0.55194994
      11.5, 89.027055, 0.6754427,0.26226506, 27.226506,         0,0.50315103
      11.6, 89.595788,0.69023277,0.26236681, 27.236681,         0,0.45238022
      11.7, 90.164372,0.70528818,0.26246893, 27.246893,         0,0.39949928
      11.8, 90.732754,0.72061113,0.26257142, 27.257142,         0,0.34432871
      11.9, 91.301035,0.73620792,0.26267429, 27.267429,         0,0.28666036
        12, 91.869065,0.75207809,0.26277751, 27.277751,         0,0.22639274
      12.1, 92.436986,0.76822921,0.26288111, 27.288111,         0,0.16385397
      12.2,  93.00472,0.78466285,0.26298506, 27.298506,         0,0.10055061
      12.3, 93.572222,0.80138125,0.26308937, 27.308937,         0,0.040128815
      12.4,  94.13935,0.81838387,0.26319386, 27.319386,         0,-0.028409381
      12.5, 94.705619,0.83565917,0.26329827, 27.329827,         0,-0.11494254
      12.6, 95.271672,0.85322995,  0.263403,   27.3403,         0,-0.19941951
      12.7, 95.837515, 0.8711002,0.26350807, 27.350807,         0,-0.28997651
      12.8, 96.403145,0.88927355,0.26361347, 27.361347,         0,-0.38426961
      12.9, 96.968557,0.90775364,0.26371919, 27.371919,         0,-0.48159791
        13, 97.533747,0.92654413,0.26382524, 27.382524,         0,-0.58187198
      13.1, 98.098775,0.94565092,0.26393162, 27.393162,         0,-0.68512743
      13.2, 98.663507,0.96507331,0.26403831, 27.403831,         0,-0.79139617
      13.3, 99.227994,0.98481688, 0.2641453,  27.41453,         0,-0.90072958
      13.4, 99.792232, 1.0048853, 0.2642526,  27.42526,         0,-1.0131808
      13.5, 100.35622, 1.0252823, 0.2643602,  27.43602,         0,-1.1288001
      13.6, 100.91994, 1.0460117, 0.2644681,  27.44681,         0,-1.2476378
      13.7,  101.4834, 1.0670771,0.26457629, 27.457629,         0,-1.3697449
      13.8, 102.04659, 1.0884823,0.26468478, 27.468478,         0,-1.4951725
      13.9, 102.60951, 1.1102311,0.26479355, 27.479355,         0,-1.6239722
        14, 103.17216, 1.1323273, 0.2649026,  27.49026,         0,-1.7561957
      14.1, 103.73458, 1.1547771,0.26501195, 27.501195,         0,-1.8919053
      14.2, 104.29665, 1.1775794,0.26512156, 27.512156,         0,-2.0311336
      14.3, 104.85842,   1.20074,0.26523143, 27.523143,         0,-2.1739332
      14.4, 105.41988, 1.2242626,0.26534156, 27.534156,         0,-2.3203629
      14.5, 105.98103,  1.248151,0.26545195, 27.545195,         0,-2.4704755
      14.6, 106.54186,  1.272409,0.26556259, 27.556259,         0,-2.6243241
      14.7, 107.10236, 1.2970404,0.26567348, 27.567348,         0,-2.7821254
      14.8, 107.66253,  1.322049,0.26578461, 27.578461,         0,-2.9442882
      14.9, 108.22237, 1.3474386,0.26589599, 27.589599,         0,-3.1108965
        15, 108.78186, 1.3732132, 0.2660076,  27.60076,         0,-3.2820235
      15.1, 109.34108, 1.3993792,0.26611945, 27.611945,         0,-3.4577561
      15.2, 109.89988,  1.425935,0.26623152, 27.623152,         0,-3.6381423
      15.3, 110.45831, 1.4528864, 0.2663438,  27.63438,         0,-3.8232666
      15.4, 111.01637, 1.4802369,0.26645628, 27.645628,         0,-4.0132194
      15.5, 111.57403, 1.5079903,0.26656897, 27.656897,         0,-4.2080813
      15.6, 112.13131, 1.5361505,0.26668184, 27.668184,         0,-4.4079329
      15.7, 112.68819, 1.5647211,0.26679492, 27.679492,         0,-4.6128553
      15.8, 113.24467,  1.593706,0.26690817, 27.690817,         0,-4.8229298
      15.9, 113.80074, 1.6231088,0.26702161, 27.702161,         0,-5.0382377
        16,  114.3564, 1.6529335,0.26713523, 27.713523,         0,-5.2588606
      16.1, 114.91169, 1.6831866,0.26724903, 27.724903,         0,-5.4848956
      16.2, 115.46651, 1.7138661,0.26736298, 27.736298,         0,-5.7163938
      16.3, 116.02087, 1.7449771,0.26747708, 27.747708,         0,-5.9534669
      16.4, 116.57476, 1.7765229,0.26759131, 27.759131,         0,-6.1962216
      16.5, 117.12818, 1.8085074,0.26770567, 27.770567,         0,-6.4447455
      16.6, 117.68112,  1.840934,0.26782016, 27.782016,         0,-6.6991256
      16.7, 118.23358, 1.8738063,0.26793476, 27.793476,         0, -6.959449
      16.8, 118.78555, 1.9071279,0.26804947, 27.804947,         0, -7.225802
      16.9, 119.33702, 1.9409023, 0.2681643,  27.81643,         0,-7.4982705
        17, 119.88798, 1.9751331,0.26827922, 27.827922,         0,-7.7769398
      17.1, 120.43849, 2.0098271,0.26839424, 27.839424,         0,-8.0619133
      17.2, 120.98843, 2.0449812,0.26850935, 27.850935,         0,-8.3532388
      17.3, 121.53775, 2.0805964,0.26862449, 27.862449,         0,-8.6510324
      17.4, 122.08646, 2.1166757,0.26873967, 27.873967,         0,-8.9554154
      17.5, 122.63453, 2.1532221,0.26885487, 27.885487,         0,-9.2664727
      17.6, 123.18196, 2.1902388,0.26897009, 27.897009,         0,-9.5842878
      17.7, 123.72876, 2.2277287,0.26908532, 27.908532,         0,-9.9089426
      17.8, 124.27489,  2.265695,0.26920055, 27.920055,         0,-10.240518
      17.9, 124.82037, 2.3041406,0.26931578, 27.931578,         0,-10.579091
        18, 125.36518, 2.3430684,0.26943099, 27.943099,         0,-10.924741
      18.1, 125.90937,  2.382485, 0.2695462,  27.95462,         0,-11.277563
      18.2, 126.45282,  2.422386,0.26966137, 27.966137,         0,-11.637589
      18.3, 126.99453, 2.4626994,0.26977623, 27.977623,         0,-12.004415
      18.4, 127.53449, 2.5034246,0.26989079, 27.989079,         0,-12.378136
      18.5,  128.0727, 2.5445613,0.27000502, 28.000502,         0,-12.758785
      18.6, 128.60915, 2.5861091,0.27011893, 28.011893,         0,-13.146389
      18.7, 129.14383, 2.6280672,0.27023249, 28.023249,         0,-13.540973
      18.8, 129.67673,  2.670435, 0.2703457,  28.03457,         0,-13.942557
      18.9, 130.20785, 2.7132119,0.27045855, 28.045855,         0,-14.351158
        19, 130.73718, 2.7563969,0.27057103, 28.057103,         0, -14.76679
      19.1, 131.26472, 2.7999891,0.27068312, 28.068312,         0,-15.189463
      19.2, 131.79045, 2.8439875,0.27079482, 28.079482,         0,-15.619185
      19.3, 132.31334, 2.8883038,0.27090584, 28.090584,         0, -16.05535
      19.4, 132.83339, 2.9329333,0.27101616, 28.101616,         0,-16.498022
      19.5,  133.3506, 2.9778716,0.27112578, 28.112578,         0,-16.947149
      19.6, 133.86495,  3.023114,0.27123467, 28.123467,         0,-17.402674
      19.7, 134.37644, 3.0686556,0.27134283, 28.134283,         0,-17.864534
      19.8, 134.88506, 3.1144916,0.27145025, 28.145025,         0,-18.332662
      19.9, 135.39081,  3.160617, 0.2715569,  28.15569,         0, -18.80699
        20, 135.89367, 3.2070266,0.27166279, 28.166279,         0,-19.287443
      20.1, 136.39366, 3.2537153,0.27176788, 28.176788,         0,-19.773944
      20.2, 136.89074, 3.3006776,0.27187218, 28.187218,         0,-20.266414
      20.3, 137.38385, 3.3478042,0.27197536, 28.197536,         0,-20.763922
      20.4, 137.87297, 3.3950857, 0.2720774,  28.20774,         0,-21.266504
      20.5, 138.35809,  3.442513,0.27217829, 28.217829,         0,-21.774003
      20.6, 138.83922, 3.4900768,0.27227801, 28.227801,         0,-22.286261
      20.7, 139.31634, 3.5377678,0.27237655, 28.237655,         0,-22.803115
      20.8, 139.78945, 3.5855762,0.27247389, 28.247389,         0,  -23.3244
      20.9, 140.25855, 3.6334927,0.27257002, 28.257002,         0,-23.849953
        21, 140.72362, 3.6815075,0.27266492, 28.266492,         0,-24.379606
      21.1, 141.18467, 3.7296108,0.27275857, 28.275857,         0,-24.913194
      21.2, 141.64169, 3.7777927,0.27285097, 28.285097,         0,-25.450548
      21.3, 142.09362, 3.8259304,0.27294178, 28.294178,         0,-25.990399
      21.4, 142.54045, 3.8740103,0.27303098, 28.303098,         0,-26.532796
      21.5, 142.98218,  3.922019,0.27311855, 28.311855,         0,-27.077494
      21.6, 143.41881, 3.9699429,0.27320448, 28.320448,         0,-27.624247
      21.7, 143.85033, 4.0177684,0.27328875, 28.328875,         0,-28.172813
      21.8, 144.27673, 4.0654819,0.27337134, 28.337134,         0, -28.72295
      21.9, 144.69802, 4.1130699,0.27345224, 28.345224,         0, -29.27442
        22, 145.11418, 4.1605188,0.27353144, 28.353144,         0,-29.826989
      22.1, 145.52522, 4.2078148,0.27360892, 28.360892,         0,-30.380427
      22.2, 145.93114, 4.2549444,0.27368465, 28.368465,         0,-30.934507
      22.3,   146.331, 4.3017853,0.27375834, 28.375834,         0,-31.487699
      22.4,  146.7248, 4.3483209,0.27382995, 28.382995,         0,-32.040136
      22.5, 147.11254, 4.3945346,0.27389948, 28.389948,         0,-32.591521
      22.6, 147.49421, 4.4404103,0.27396691, 28.396691,         0,-33.141565
      22.7, 147.86982, 4.4859318,0.27403222, 28.403222,         0,-33.689984
      22.8, 148.23936, 4.5310828, 0.2740954,  28.40954,         0,-34.236501
      22.9, 148.60283, 4.5758476,0.27415643, 28.415643,         0,-34.780844
        23, 148.96023, 4.6202101,0.27421531, 28.421531,         0,-35.322748
      23.1, 149.31155, 4.6641547,  0.274272,   28.4272,         0,-35.861956
      23.2,  149.6568, 4.7076656,0.27432651, 28.432651,         0,-36.398212
      23.3, 149.99528, 4.7506388,0.27437857, 28.437857,         0,-36.929915
      23.4, 150.32698, 4.7930565,0.27442816, 28.442816,         0,-37.457321
      23.5, 150.65191, 4.8349018,0.27447527, 28.447527,         0, -37.98013
      23.6, 150.97006, 4.8761578,0.27451989, 28.451989,         0,-38.498052
      23.7, 151.28144, 4.9168082,0.27456201, 28.456201,         0,-39.010802
      23.8, 151.58604, 4.9568365,0.27460162, 28.460162,         0,-39.518105
      23.9, 151.88387, 4.9962268,0.27463869, 28.463869,         0,-40.019696
        24, 152.17492, 5.0349634,0.27467323, 28.467323,         0,-40.515313
      24.1, 152.45921, 5.0730308,0.27470523, 28.470523,         0,-41.004706
      24.2, 152.73673, 5.1104138,0.27473467, 28.473467,         0,-41.487624
      24.3, 153.00707, 5.1470432,0.27476138, 28.476138,         0, -41.96265
      24.4, 153.27026,  5.182903,0.27478534, 28.478534,         0,-42.430153
      24.5, 153.52627, 5.2179782,0.27480655, 28.480655,         0,-42.889869
      24.6, 153.77512, 5.2522539,  0.274825,   28.4825,         0, -43.34154
      24.7, 154.01682, 5.2857159,0.27484068, 28.484068,         0,-43.784921
      24.8, 154.25136, 5.3183502, 0.2748536,  28.48536,         0,-44.219773
      24.9, 154.47875, 5.3501434,0.27486373, 28.486373,         0,-44.645867
        25, 154.69899, 5.3810822,0.27487109, 28.487109,         0, -45.06298
      25.1, 154.91209, 5.4111541,0.27487566, 28.487566,         0,-45.470898
      25.2, 155.11806, 5.4403467,0.27487745, 28.487745,         0,-45.869413
