"time","B1.f2.Pt","B1.f2.m","B2.f2.Pt","B2.f2.m","C1.V_bubble","C2.V_bubble","D1.f_out.m","D2.f_out.m","D3.f_out.m","D4.f_out.m","D5.f_out.m","D6.f_out.m","D7.f_out.m","D8.f_out.m","E1.on.signal[1]","E2.on.signal[1]","V1.s_pos.signal[1]","V2.s_pos.signal[1]"
0,1.40056,-69.1328,1.40056,-69.1328,4.38349,4.38349,-69.1328,-69.1328,-1.25279e-05,-3.98131e-05,7.05615e-05,-1.07007e-05,-2.01747e-07,-7.31807e-06,0,0,0,0
0.25,1.43362,-18.332,1.40056,-69.1328,4.39734,4.40078,-20.0265,-69.1328,-1.25278e-05,-3.9812e-05,7.05595e-05,-1.07002e-05,-2.01747e-07,-7.31785e-06,1,0,0,0
0.5,1.49862,246.913,1.40056,-69.1328,4.37367,4.41807,245.022,-69.1328,-1.25276e-05,-3.98108e-05,7.05576e-05,-1.06997e-05,-2.01748e-07,-7.31764e-06,1,0,0,0
0.75,1.56609,708.7,1.40056,-69.1328,4.25731,4.43537,708.324,-69.1328,-1.25275e-05,-3.98097e-05,7.05556e-05,-1.06993e-05,-2.01748e-07,-7.31742e-06,1,0,0,0
1,1.6098,1196.31,1.40056,-69.1328,4.01612,4.45266,1197.45,-69.1328,-1.25273e-05,-3.98085e-05,7.05536e-05,-1.06988e-05,-2.01748e-07,-7.31721e-06,1,0,0,0
1.25,1.68576,1538.95,1.40056,-69.1328,3.67171,4.46995,1539.45,-69.1328,-1.25272e-05,-3.98074e-05,7.05516e-05,-1.06983e-05,-2.01748e-07,-7.317e-06,1,0,0,0
1.5,1.8069,1788.9,1.40056,-69.1328,3.25417,4.48725,1789.32,-69.1328,-1.25271e-05,-3.98062e-05,7.05497e-05,-1.06978e-05,-2.01749e-07,-7.31678e-06,1,0,0,0
1.75,1.97779,1968.52,1.40056,-69.1328,2.7831,4.50454,1969.02,-69.1328,-1.25269e-05,-3.98051e-05,7.05477e-05,-1.06974e-05,-2.01749e-07,-7.31657e-06,1,0,0,0
2,2.22623,2067.65,1.40056,-69.1328,2.27694,4.52183,2068.31,-69.1328,-1.25268e-05,-3.9804e-05,7.05457e-05,-1.06969e-05,-2.01749e-07,-7.31636e-06,1,0,0,0
2.25,2.61185,2061.8,1.40056,-69.1328,1.75854,4.53913,2063.06,-69.1328,-1.25266e-05,-3.98028e-05,7.05437e-05,-1.06964e-05,-2.01749e-07,-7.31614e-06,1,0,0,0
2.5,3.21546,1815.8,1.40056,-69.1328,1.26719,4.55642,1816.46,-69.1328,-1.25265e-05,-3.98017e-05,7.05417e-05,-1.06959e-05,-2.01749e-07,-7.31593e-06,1,0,0,0
2.75,4.13905,1197.69,1.40056,-69.1328,0.876444,4.57372,1195.77,-69.1328,-1.25263e-05,-3.98005e-05,7.05398e-05,-1.06954e-05,-2.0175e-07,-7.31571e-06,1,0,0,0
3,4.99246,273.918,1.40056,-69.1328,0.713188,4.59101,261.451,-69.1328,-1.25262e-05,-3.97994e-05,7.05378e-05,-1.0695e-05,-2.0175e-07,-7.3155e-06,1,0,0,0
3.25,5.21245,79.0877,1.40056,-69.1328,0.675805,4.6083,77.1158,-69.1328,-1.2526e-05,-3.97982e-05,7.05358e-05,-1.06945e-05,-2.0175e-07,-7.31529e-06,1,0,0,0
3.5,5.23338,51.5509,1.40056,-69.1328,0.661113,4.6256,51.4063,-69.1328,-1.25259e-05,-3.97971e-05,7.05338e-05,-1.0694e-05,-2.0175e-07,-7.31507e-06,1,0,0,0
3.75,5.22904,56.1397,1.40056,-69.1328,0.647624,4.64289,56.2263,-69.1328,-1.25257e-05,-3.9796e-05,7.05319e-05,-1.06935e-05,-2.01751e-07,-7.31486e-06,1,0,0,0
4,5.22863,56.8282,1.40056,-69.1328,0.633428,4.66018,56.8302,-69.1328,-1.25256e-05,-3.97948e-05,7.05299e-05,-1.06931e-05,-2.01751e-07,-7.31465e-06,1,0,0,0
4.25,5.22886,56.5576,1.40056,-69.1328,0.619255,4.67748,56.5528,-69.1328,-1.25255e-05,-3.97937e-05,7.05279e-05,-1.06926e-05,-2.01751e-07,-7.31443e-06,1,0,0,0
4.5,5.22885,56.5616,1.40056,-69.1328,0.605108,4.69477,56.562,-69.1328,-1.25253e-05,-3.97925e-05,7.05259e-05,-1.06921e-05,-2.01751e-07,-7.31422e-06,1,0,0,0
4.75,5.22884,56.5724,1.40056,-69.1328,0.590957,4.71206,56.5726,-69.1328,-1.25252e-05,-3.97914e-05,7.05239e-05,-1.06916e-05,-2.01752e-07,-7.314e-06,1,0,0,0
5,5.22885,56.5706,1.40056,-69.1328,0.576806,4.72936,56.5706,-69.1328,-1.2525e-05,-3.97902e-05,7.0522e-05,-1.06912e-05,-2.01752e-07,-7.31379e-06,1,0,0,0
5.25,5.22885,56.5705,1.40056,-69.1328,0.562655,4.74665,56.5705,-69.1328,-1.25249e-05,-3.97891e-05,7.052e-05,-1.06907e-05,-2.01752e-07,-7.31358e-06,1,0,0,0
5.5,5.22885,56.5706,1.40056,-69.1328,0.548504,4.76394,56.5706,-69.1328,-1.25247e-05,-3.9788e-05,7.0518e-05,-1.06902e-05,-2.01752e-07,-7.31336e-06,1,0,0,0
5.75,5.22885,56.5705,1.40056,-69.1328,0.534353,4.78124,56.5705,-69.1328,-1.25246e-05,-3.97868e-05,7.0516e-05,-1.06897e-05,-2.01752e-07,-7.31315e-06,1,0,0,0
6,5.22885,56.5705,1.40056,-69.1328,0.520201,4.79853,56.5705,-69.1328,-1.25244e-05,-3.97857e-05,7.05141e-05,-1.06893e-05,-2.01753e-07,-7.31294e-06,1,0,0,0
6.25,5.22885,56.5705,1.40056,-69.1328,0.50605,4.81583,56.5705,-69.1328,-1.25243e-05,-3.97845e-05,7.05121e-05,-1.06888e-05,-2.01753e-07,-7.31272e-06,1,0,0,0
6.5,5.22885,56.5705,1.40056,-69.1328,0.491899,4.83312,56.5705,-69.1328,-1.25242e-05,-3.97834e-05,7.05101e-05,-1.06883e-05,-2.01753e-07,-7.31251e-06,1,0,0,0
6.75,5.22885,56.5705,1.40056,-69.1328,0.477748,4.85041,56.5705,-69.1328,-1.2524e-05,-3.97822e-05,7.05081e-05,-1.06878e-05,-2.01753e-07,-7.31229e-06,1,0,0,0
7,5.22885,56.5705,1.40056,-69.1328,0.463597,4.86771,56.5705,-69.1328,-1.25239e-05,-3.97811e-05,7.05061e-05,-1.06873e-05,-2.01754e-07,-7.31208e-06,1,0,0,0
7.25,5.22885,56.5705,1.40056,-69.1328,0.449446,4.885,56.5705,-69.1328,-1.25237e-05,-3.978e-05,7.05042e-05,-1.06869e-05,-2.01754e-07,-7.31187e-06,1,0,0,0
7.5,5.22885,56.5705,1.40056,-69.1328,0.435295,4.90229,56.5705,-69.1328,-1.25236e-05,-3.97788e-05,7.05022e-05,-1.06864e-05,-2.01754e-07,-7.31165e-06,1,0,0,0
7.75,5.22885,56.5705,1.40056,-69.1328,0.421144,4.91959,56.5705,-69.1328,-1.25234e-05,-3.97777e-05,7.05002e-05,-1.06859e-05,-2.01754e-07,-7.31144e-06,1,0,0,0
8,5.22885,56.5705,1.40056,-69.1328,0.406992,4.93688,56.5705,-69.1328,-1.25233e-05,-3.97765e-05,7.04982e-05,-1.06854e-05,-2.01755e-07,-7.31123e-06,1,0,0,0
8.25,5.22885,56.5705,1.40056,-69.1328,0.392841,4.95417,56.5705,-69.1328,-1.25231e-05,-3.97754e-05,7.04963e-05,-1.0685e-05,-2.01755e-07,-7.31101e-06,1,0,0,0
8.5,5.22885,56.5705,1.40056,-69.1328,0.37869,4.97147,56.5705,-69.1328,-1.2523e-05,-3.97742e-05,7.04943e-05,-1.06845e-05,-2.01755e-07,-7.3108e-06,1,0,0,0
8.75,5.22885,56.5705,1.40056,-69.1328,0.364539,4.98876,56.5705,-69.1328,-1.25228e-05,-3.97731e-05,7.04923e-05,-1.0684e-05,-2.01756e-07,-7.31059e-06,1,0,0,0
9,5.22885,56.5705,1.40056,-69.1328,0.350388,5.00605,56.5705,-69.1328,-1.25227e-05,-3.9772e-05,7.04903e-05,-1.06835e-05,-2.01756e-07,-7.31037e-06,1,0,0,0
9.25,5.22885,56.5705,1.40056,-69.1328,0.336237,5.02335,56.5705,-69.1328,-1.25226e-05,-3.97708e-05,7.04883e-05,-1.06831e-05,-2.01756e-07,-7.31016e-06,1,0,0,0
9.5,5.22885,56.5705,1.40056,-69.1328,0.322086,5.04064,56.5705,-69.1328,-1.25224e-05,-3.97697e-05,7.04864e-05,-1.06826e-05,-2.01756e-07,-7.30994e-06,1,0,0,0
9.75,5.22885,56.5705,1.40056,-69.1328,0.307935,5.05794,56.5705,-69.1328,-1.25223e-05,-3.97685e-05,7.04844e-05,-1.06821e-05,-2.01757e-07,-7.30973e-06,1,0,0,0
10,5.22885,56.5705,1.40056,-69.1328,0.293783,5.07523,56.5705,-69.1328,-1.25221e-05,-3.97674e-05,7.04824e-05,-1.06816e-05,-2.01757e-07,-7.30952e-06,1,0,0,0
10.25,5.22885,56.5705,1.40056,-69.1328,0.279632,5.09252,56.5705,-69.1328,-1.2522e-05,-3.97663e-05,7.04804e-05,-1.06812e-05,-2.01757e-07,-7.3093e-06,1,0,0,0
10.5,5.22885,56.5705,1.40056,-69.1328,0.265481,5.10982,56.5705,-69.1328,-1.25218e-05,-3.97651e-05,7.04785e-05,-1.06807e-05,-2.01757e-07,-7.30909e-06,1,0,0,0
10.75,5.22885,56.5705,1.40056,-69.1328,0.25133,5.12711,56.5705,-69.1328,-1.25217e-05,-3.9764e-05,7.04765e-05,-1.06802e-05,-2.01758e-07,-7.30888e-06,1,0,0,0
11,5.22885,56.5705,1.40056,-69.1328,0.237179,5.1444,56.5705,-69.1328,-1.25215e-05,-3.97628e-05,7.04745e-05,-1.06797e-05,-2.01758e-07,-7.30866e-06,1,0,0,0
11.25,5.22885,56.5705,1.40056,-69.1328,0.223028,5.1617,56.5705,-69.1328,-1.25214e-05,-3.97617e-05,7.04725e-05,-1.06793e-05,-2.01758e-07,-7.30845e-06,1,0,0,0
11.5,5.22885,56.5705,1.40056,-69.1328,0.208877,5.17899,56.5705,-69.1328,-1.25212e-05,-3.97605e-05,7.04706e-05,-1.06788e-05,-2.01758e-07,-7.30824e-06,1,0,0,0
11.75,5.22885,56.5705,1.40056,-69.1328,0.194725,5.19628,56.5705,-69.1328,-1.25211e-05,-3.97594e-05,7.04686e-05,-1.06783e-05,-2.01759e-07,-7.30802e-06,1,0,0,0
12,5.22885,56.5705,1.40056,-69.1328,0.180574,5.21358,56.5705,-69.1328,-1.2521e-05,-3.97583e-05,7.04666e-05,-1.06778e-05,-2.01759e-07,-7.30781e-06,1,0,0,0
12.25,5.22885,56.5705,1.40056,-69.1328,0.166423,5.23087,56.5705,-69.1328,-1.25208e-05,-3.97571e-05,7.04646e-05,-1.06773e-05,-2.01759e-07,-7.30759e-06,1,0,0,0
12.5,5.22885,56.5705,1.40056,-69.1328,0.152272,5.24816,56.5705,-69.1328,-1.25207e-05,-3.9756e-05,7.04627e-05,-1.06769e-05,-2.01759e-07,-7.30738e-06,1,0,0,0
12.75,5.22885,56.5705,1.40056,-69.1328,0.138121,5.26546,56.5705,-69.1328,-1.25205e-05,-3.97548e-05,7.04607e-05,-1.06764e-05,-2.0176e-07,-7.30717e-06,1,0,0,0
13,5.22885,56.5705,1.40056,-69.1328,0.12397,5.28275,56.5705,-69.1328,-1.25204e-05,-3.97537e-05,7.04587e-05,-1.06759e-05,-2.0176e-07,-7.30695e-06,1,0,0,0
13.25,5.22885,56.5705,1.40056,-69.1328,0.109819,5.30005,56.5705,-69.1328,-1.25202e-05,-3.97526e-05,7.04567e-05,-1.06754e-05,-2.0176e-07,-7.30674e-06,1,0,0,0
13.5,5.22885,56.5705,1.40056,-69.1328,0.0956676,5.31734,56.5705,-69.1328,-1.25201e-05,-3.97514e-05,7.04548e-05,-1.0675e-05,-2.0176e-07,-7.30653e-06,1,0,0,0
13.75,5.22885,56.5705,1.40056,-69.1328,0.0815165,5.33463,56.5705,-69.1328,-1.25199e-05,-3.97503e-05,7.04528e-05,-1.06745e-05,-2.01761e-07,-7.30631e-06,1,0,0,0
14,5.22885,56.5705,1.40056,-69.1328,0.0673653,5.35193,56.5705,-69.1328,-1.25198e-05,-3.97491e-05,7.04508e-05,-1.0674e-05,-2.01761e-07,-7.3061e-06,1,0,0,0
14.25,5.22885,56.5705,1.40056,-69.1328,0.0532142,5.36922,56.5705,-69.1328,-1.25196e-05,-3.9748e-05,7.04488e-05,-1.06735e-05,-2.01761e-07,-7.30589e-06,1,0,0,0
14.5,5.22885,56.5705,1.40056,-69.1328,0.0390631,5.38651,56.5705,-69.1328,-1.25195e-05,-3.97468e-05,7.04468e-05,-1.06731e-05,-2.01761e-07,-7.30567e-06,1,0,0,0
14.75,5.22885,56.5705,1.40056,-69.1328,0.024912,5.40381,56.5705,-69.1328,-1.25194e-05,-3.97457e-05,7.04449e-05,-1.06726e-05,-2.01762e-07,-7.30546e-06,1,0,0,0
15,5.22885,56.5705,1.40056,-69.1328,0.0107608,5.4211,56.5705,-69.1328,-1.25192e-05,-3.97446e-05,7.04429e-05,-1.06721e-05,-2.01762e-07,-7.30525e-06,1,0,0,0
15.25,5.26841,-10.1639,1.40056,-69.1328,0,5.43839,-41.6638,-69.1328,-1.25191e-05,-3.97434e-05,7.04409e-05,-1.06716e-05,-2.01762e-07,-7.30503e-06,1,0,0,0
15.5,5.27411,-0.0779116,1.40056,-69.1328,0,5.45569,-7.12549,-69.1328,-1.25189e-05,-3.97423e-05,7.04389e-05,-1.06712e-05,-2.01762e-07,-7.30482e-06,1,0,0,0
15.75,5.274,-0.0125166,1.40056,-69.1328,0,5.47298,-1.107,-69.1328,-1.25188e-05,-3.97411e-05,7.0437e-05,-1.06707e-05,-2.01763e-07,-7.30461e-06,1,0,0,0
16,5.27395,-0.00178169,1.40056,-69.1328,0,5.49028,-0.15076,-69.1328,-1.25186e-05,-3.974e-05,7.0435e-05,-1.06702e-05,-2.01763e-07,-7.30439e-06,1,0,0,0
16.25,5.27394,-0.000155832,1.40056,-69.1328,0,5.50757,-0.0110693,-69.1328,-1.25185e-05,-3.97389e-05,7.0433e-05,-1.06697e-05,-2.01763e-07,-7.30418e-06,1,0,0,0
16.5,5.27393,3.04872e-05,1.40056,-69.1328,0,5.52486,0.00330813,-69.1328,-1.25183e-05,-3.97377e-05,7.0431e-05,-1.06693e-05,-2.01763e-07,-7.30396e-06,1,0,0,0
16.75,5.27393,2.193e-06,1.40056,-69.1328,0,5.54216,0.000185025,-69.1328,-1.25182e-05,-3.97366e-05,7.04291e-05,-1.06688e-05,-2.01764e-07,-7.30375e-06,1,0,0,0
17,5.27393,-3.00487e-07,1.40056,-69.1328,0,5.55945,-2.85365e-05,-69.1328,-1.2518e-05,-3.97354e-05,7.04271e-05,-1.06683e-05,-2.01764e-07,-7.30354e-06,1,0,0,0
17.25,5.27393,6.40698e-08,1.40056,-69.1328,0,5.57674,2.96441e-06,-69.1328,-1.25179e-05,-3.97343e-05,7.04251e-05,-1.06678e-05,-2.01764e-07,-7.30332e-06,1,0,0,0
17.5,5.27393,3.46344e-09,1.40056,-69.1328,0,5.59404,2.1731e-07,-69.1328,-1.25178e-05,-3.97332e-05,7.04231e-05,-1.06674e-05,-2.01764e-07,-7.30311e-06,1,0,0,0
17.75,5.27393,-4.91724e-10,1.40056,-69.1328,0,5.61133,-3.85955e-08,-69.1328,-1.25176e-05,-3.9732e-05,7.04212e-05,-1.06669e-05,-2.01765e-07,-7.3029e-06,1,0,0,0
18,5.27393,2.11724e-10,1.40056,-69.1328,0,5.62862,1.33343e-08,-69.1328,-1.25175e-05,-3.97309e-05,7.04192e-05,-1.06664e-05,-2.01765e-07,-7.30268e-06,1,0,0,0
18.25,5.27393,-9.6282e-12,1.40056,-69.1328,0,5.64592,-7.06734e-10,-69.1328,-1.25173e-05,-3.97297e-05,7.04172e-05,-1.06659e-05,-2.01765e-07,-7.30247e-06,1,0,0,0
18.5,5.27393,4.31576e-13,1.40056,-69.1328,0,5.66321,3.33605e-11,-69.1328,-1.25172e-05,-3.97286e-05,7.04152e-05,-1.06655e-05,-2.01765e-07,-7.30226e-06,1,0,0,0
18.75,5.27393,-4.62932e-14,1.40056,-69.1328,0,5.6805,-1.02246e-12,-69.1328,-1.2517e-05,-3.97274e-05,7.04133e-05,-1.0665e-05,-2.01765e-07,-7.30204e-06,1,0,0,0
19,5.27393,-2.17683e-14,1.40056,-69.1328,0,5.6978,4.33703e-14,-69.1328,-1.25169e-05,-3.97263e-05,7.04113e-05,-1.06645e-05,-2.01766e-07,-7.30183e-06,1,0,0,0
19.25,5.27393,1.10313e-13,1.40056,-69.1328,0,5.71509,3.15102e-13,-69.1328,-1.25167e-05,-3.97252e-05,7.04093e-05,-1.0664e-05,-2.01766e-07,-7.30162e-06,1,0,0,0
19.5,5.27393,-2.67766e-14,1.40056,-69.1328,0,5.73239,3.4872e-13,-69.1328,-1.25166e-05,-3.9724e-05,7.04073e-05,-1.06636e-05,-2.01766e-07,-7.3014e-06,1,0,0,0
19.75,5.27393,6.44469e-14,1.40056,-69.1328,0,5.74968,5.39528e-13,-69.1328,-1.25165e-05,-3.97229e-05,7.04054e-05,-1.06631e-05,-2.01766e-07,-7.30119e-06,1,0,0,0
20,5.27393,7.29174e-15,1.40056,-69.1328,0,5.76697,8.56685e-13,-69.1328,-1.25163e-05,-3.97217e-05,7.04034e-05,-1.06626e-05,-2.01766e-07,-7.30098e-06,1,0,0,0
20.25,5.2637,13.6819,1.40056,-69.1328,0,5.78427,15.1725,-69.1328,-0.100541,-0.0163376,-0.00178306,-0.000299095,-2.65016e-05,-9.4561e-06,1,0,0.02,0
20.5,5.2507,30.9229,1.40056,-69.1328,0,5.80156,32.0273,-69.1328,-19.4269,-7.72101,-2.63325,-0.973059,-0.261407,-0.0644095,1,0,0.045,0
20.75,5.23541,48.8408,1.40056,-69.1328,0,5.81885,49.8248,-69.1328,-39.7594,-15.8658,-5.42158,-2.00497,-0.54131,-0.135194,1,0,0.07,0
21,5.2184,67.0375,1.40056,-69.1328,0,5.83615,67.9613,-69.1328,-41.7433,-16.6365,-5.67274,-2.0947,-0.564633,-0.140898,1,0,0.095,0
21.25,5.04259,213.215,1.40056,-69.1328,0,5.85344,220.282,-69.1328,-46.1658,-18.1924,-6.16616,-2.27159,-0.61118,-0.152362,1,0,0.12,0
21.5,4.8772,331.652,1.40056,-69.1328,0,5.87073,331.991,-69.1328,-236.052,-94.463,-32.3022,-11.9391,-3.21261,-0.797284,1,0,0.145,0
21.75,4.6134,531.233,1.40056,-69.1328,0,5.88803,532.857,-69.1328,-365.028,-147.93,-50.8315,-18.8193,-5.08871,-1.27772,1,0,0.17,0
22,4.42385,698.925,1.40056,-69.1328,0,5.90532,700.6,-69.1328,-419.108,-172.408,-59.5807,-22.0918,-5.97586,-1.50101,1,0,0.195,0
22.25,4.21244,884.197,1.40056,-69.1328,0,5.92261,885.736,-69.1328,-497.188,-207.844,-72.342,-26.8855,-7.2799,-1.82963,1,0,0.22,0
22.5,4.13575,1060.46,1.40056,-69.1328,0,5.93991,1060.21,-69.1328,-662.633,-280.855,-98.3915,-36.6477,-9.93534,-2.49943,1,0,0.245,0
22.75,3.94106,1304.77,1.40056,-69.1328,0,5.9572,1305.58,-69.1328,-783.399,-339.73,-120.32,-44.9793,-12.2117,-3.07303,1,0,0.27,0
23,3.73557,1487.27,1.40056,-69.1328,0,5.9745,1487.68,-69.1328,-898.483,-399.953,-143.501,-53.8866,-14.6585,-3.69113,1,0,0.295,0
23.25,3.61272,1683.54,1.40056,-69.1328,0,5.99179,1684.18,-69.1328,-973.932,-447.144,-162.979,-61.5347,-16.7756,-4.22666,1,0,0.32,0
23.5,3.54034,1830.39,1.40056,-69.1328,0,6.00908,1830.41,-69.1328,-1064.6,-503.046,-186.295,-70.7412,-19.3319,-4.87416,1,0,0.345,0
23.75,3.44718,1994.23,1.40056,-69.1328,0,6.02638,1994.8,-69.1328,-1125.99,-549.506,-207.289,-79.2467,-21.7177,-5.48005,1,0,0.37,0
24,3.38541,2122.48,1.40056,-69.1328,0,6.04367,2122.42,-69.1328,-1188,-597.852,-229.843,-88.505,-24.3304,-6.14493,1,0,0.395,0
24.25,3.32382,2247.52,1.40056,-69.1328,0,6.06096,2247.86,-69.1328,-1229.76,-639.088,-250.836,-97.3703,-26.8606,-6.79066,1,0,0.42,0
24.5,3.25996,2344.46,1.40056,-69.1328,0,6.07826,2344.38,-69.1328,-1263.29,-677.398,-271.655,-106.371,-29.4561,-7.45521,1,0,0.445,0
24.75,3.18639,2428.95,1.40056,-69.1328,0,6.09555,2429.14,-69.1328,-1279.9,-708.464,-290.665,-114.897,-31.9509,-8.0965,1,0,0.47,0
25,3.12252,2491.36,1.40056,-69.1328,0,6.11284,2491.32,-69.1328,-1288.54,-735.333,-308.791,-123.291,-34.441,-8.73919,1,0,0.495,0
25.25,3.06173,2546.01,1.40056,-69.1328,0,6.13014,2546.12,-69.1328,-1286.84,-756.54,-325.366,-131.295,-36.8561,-9.3655,1,0,0.52,0
25.5,3.01458,2586.45,1.40056,-69.1328,0,6.14743,2586.44,-69.1328,-1284.99,-776.035,-341.638,-139.367,-39.3222,-10.0074,1,0,0.545,0
25.75,2.96932,2624.03,1.40056,-69.1328,0,6.16472,2624.11,-69.1328,-1277.45,-791.529,-356.725,-147.176,-41.7502,-10.6426,1,0,0.57,0
26,2.93459,2652.6,1.40056,-69.1328,0,6.18202,2652.62,-69.1328,-1269.13,-804.969,-371.2,-154.925,-44.1968,-11.2856,1,0,0.595,0
26.25,2.89437,2685.14,1.40056,-69.1328,0,6.19931,2685.31,-69.1328,-1257.9,-815.531,-384.693,-162.469,-46.623,-11.9267,1,0,0.62,0
26.5,2.86724,2707.11,1.40056,-69.1328,0,6.21661,2707.1,-69.1328,-1254.99,-827.963,-398.805,-170.398,-49.1909,-12.607,1,0,0.645,0
26.75,2.83263,2735.04,1.40056,-69.1328,0,6.2339,2735.17,-69.1328,-1244.17,-835.854,-411.293,-177.876,-51.6751,-13.2697,1,0,0.67,0
27,2.81264,2751.38,1.40056,-69.1328,0,6.25119,2751.4,-69.1328,-1235.35,-843.197,-423.448,-185.368,-54.2021,-13.9473,1,0,0.695,0
27.25,2.79256,2767.76,1.40056,-69.1328,0,6.26849,2767.84,-69.1328,-1222.35,-847.555,-434.375,-192.526,-56.6782,-14.616,1,0,0.72,0
27.5,2.7806,2777.53,1.40056,-69.1328,0,6.28578,2777.52,-69.1328,-1210.03,-850.945,-444.712,-199.575,-59.1639,-15.2914,1,0,0.745,0
27.75,2.76969,2786.48,1.40056,-69.1328,0,6.30307,2786.52,-69.1328,-1196.14,-852.535,-454.13,-206.377,-61.622,-15.9642,1,0,0.77,0
28,2.76286,2792.08,1.40056,-69.1328,0,6.32037,2792.07,-69.1328,-1183.07,-853.387,-462.967,-213.044,-64.0824,-16.6421,1,0,0.795,0
28.25,2.75679,2797.04,1.40056,-69.1328,0,6.33766,2797.06,-69.1328,-1169.74,-853.166,-471.085,-219.509,-66.5272,-17.3208,1,0,0.82,0
28.5,2.75273,2800.36,1.40056,-69.1328,0,6.35495,2800.36,-69.1328,-1157.14,-852.372,-478.646,-225.821,-68.9686,-18.0034,1,0,0.845,0
28.75,2.74926,2803.19,1.40056,-69.1328,0,6.37225,2803.2,-69.1328,-1144.84,-850.929,-485.615,-231.954,-71.3994,-18.6882,1,0,0.87,0
29,2.74679,2805.2,1.40056,-69.1328,0,6.38954,2805.2,-69.1328,-1133.24,-849.084,-492.077,-237.927,-73.8241,-19.3767,1,0,0.895,0
29.25,2.7447,2806.9,1.40056,-69.1328,0,6.40683,2806.91,-69.1328,-1122.15,-846.845,-498.034,-243.731,-76.2395,-20.068,1,0,0.92,0
29.5,2.74311,2808.19,1.40056,-69.1328,0,6.42413,2808.19,-69.1328,-1111.72,-844.344,-503.54,-249.375,-78.6471,-20.7628,1,0,0.945,0
29.75,2.74175,2809.3,1.40056,-69.1328,0,6.44142,2809.3,-69.1328,-1101.85,-841.607,-508.61,-254.854,-81.0451,-21.4606,1,0,0.97,0
30,2.74065,2810.19,1.40056,-69.1328,0,6.45872,2810.19,-69.1328,-1092.56,-838.709,-513.28,-260.172,-83.4335,-22.1617,1,0,0.995,0
30.25,2.73974,2810.93,1.40056,-69.1328,0,6.47601,2810.93,-69.1328,-1083.81,-835.676,-517.568,-265.329,-85.8111,-22.8659,1,0,1,0
30.5,2.73899,2811.54,1.40056,-69.1328,0,6.4933,2811.54,-69.1328,-1075.52,-832.537,-521.501,-270.326,-88.1768,-23.5728,1,0,1,0
30.75,2.73839,2812.02,1.40056,-69.1328,0,6.5106,2812.02,-69.1328,-1067.71,-829.33,-525.1,-275.164,-90.5299,-24.2826,1,0,1,0
31,2.73788,2812.43,1.40056,-69.1328,0,6.52789,2812.43,-69.1328,-1060.34,-826.076,-528.386,-279.843,-92.8695,-24.995,1,0,1,0
31.25,2.73747,2812.77,1.40056,-69.1328,0,6.54518,2812.77,-69.1328,-1053.39,-822.802,-531.38,-284.365,-95.1949,-25.7101,1,0,1,0
31.5,2.73711,2813.06,1.40056,-69.1328,0,6.56248,2813.06,-69.1328,-1046.83,-819.525,-534.101,-288.733,-97.505,-26.4277,1,0,1,0
31.75,2.7368,2813.31,1.40056,-69.1328,0,6.57977,2813.31,-69.1328,-1040.65,-816.26,-536.569,-292.948,-99.7991,-27.1475,1,0,1,0
32,2.73652,2813.54,1.40056,-69.1328,0,6.59706,2813.54,-69.1328,-1034.81,-813.019,-538.8,-297.012,-102.076,-27.8697,1,0,1,0
32.25,2.73628,2813.73,1.40056,-69.1328,0,6.61436,2813.73,-69.1328,-1029.3,-809.815,-540.811,-300.929,-104.336,-28.5939,1,0,1,0
32.5,2.73606,2813.91,1.40056,-69.1328,0,6.63165,2813.91,-69.1328,-1024.09,-806.653,-542.618,-304.699,-106.577,-29.32,1,0,1,0
32.75,2.73586,2814.07,1.40056,-69.1328,0,6.64894,2814.07,-69.1328,-1019.16,-803.543,-544.234,-308.327,-108.799,-30.048,1,0,1,0
33,2.73567,2814.22,1.40056,-69.1328,0,6.66624,2814.22,-69.1328,-1014.5,-800.489,-545.674,-311.814,-111.002,-30.7776,1,0,1,0
33.25,2.7355,2814.36,1.40056,-69.1328,0,6.68353,2814.36,-69.1328,-1010.09,-797.496,-546.951,-315.163,-113.183,-31.5088,1,0,1,0
33.5,2.73535,2814.48,1.40056,-69.1328,0,6.70083,2814.48,-69.1328,-1005.91,-794.566,-548.076,-318.378,-115.343,-32.2413,1,0,1,0
33.75,2.7352,2814.6,1.40056,-69.1328,0,6.71812,2814.6,-69.1328,-1001.95,-791.703,-549.06,-321.461,-117.481,-32.9752,1,0,1,0
