"time","h","der(h)","v","der(v)","g","e"
0.000000,1.000000,0.000000,0.000000,-9.810000,9.810000,0.700000
0.010000,1.000000,-0.098100,-0.098100,-9.810000,9.810000,0.700000
0.020000,0.999019,-0.196200,-0.196200,-9.810000,9.810000,0.700000
0.030000,0.997057,-0.294300,-0.294300,-9.810000,9.810000,0.700000
0.040000,0.994114,-0.392400,-0.392400,-9.810000,9.810000,0.700000
0.050000,0.990190,-0.490500,-0.490500,-9.810000,9.810000,0.700000
0.060000,0.985285,-0.588600,-0.588600,-9.810000,9.810000,0.700000
0.070000,0.979399,-0.686700,-0.686700,-9.810000,9.810000,0.700000
0.080000,0.972532,-0.784800,-0.784800,-9.810000,9.810000,0.700000
0.090000,0.964684,-0.882900,-0.882900,-9.810000,9.810000,0.700000
0.100000,0.955855,-0.981000,-0.981000,-9.810000,9.810000,0.700000
0.110000,0.946045,-1.079100,-1.079100,-9.810000,9.810000,0.700000
0.120000,0.935254,-1.177200,-1.177200,-9.810000,9.810000,0.700000
0.130000,0.923482,-1.275300,-1.275300,-9.810000,9.810000,0.700000
0.140000,0.910729,-1.373400,-1.373400,-9.810000,9.810000,0.700000
0.150000,0.896995,-1.471500,-1.471500,-9.810000,9.810000,0.700000
0.160000,0.882280,-1.569600,-1.569600,-9.810000,9.810000,0.700000
0.170000,0.866584,-1.667700,-1.667700,-9.810000,9.810000,0.700000
0.180000,0.849907,-1.765800,-1.765800,-9.810000,9.810000,0.700000
0.190000,0.832249,-1.863900,-1.863900,-9.810000,9.810000,0.700000
0.200000,0.813610,-1.962000,-1.962000,-9.810000,9.810000,0.700000
0.210000,0.793990,-2.060100,-2.060100,-9.810000,9.810000,0.700000
0.220000,0.773389,-2.158200,-2.158200,-9.810000,9.810000,0.700000
0.230000,0.751807,-2.256300,-2.256300,-9.810000,9.810000,0.700000
0.240000,0.729244,-2.354400,-2.354400,-9.810000,9.810000,0.700000
0.250000,0.705700,-2.452500,-2.452500,-9.810000,9.810000,0.700000
0.260000,0.681175,-2.550600,-2.550600,-9.810000,9.810000,0.700000
0.270000,0.655669,-2.648700,-2.648700,-9.810000,9.810000,0.700000
0.280000,0.629182,-2.746800,-2.746800,-9.810000,9.810000,0.700000
0.290000,0.601714,-2.844900,-2.844900,-9.810000,9.810000,0.700000
0.300000,0.573265,-2.943000,-2.943000,-9.810000,9.810000,0.700000
0.310000,0.543835,-3.041100,-3.041100,-9.810000,9.810000,0.700000
0.320000,0.513424,-3.139200,-3.139200,-9.810000,9.810000,0.700000
0.330000,0.482032,-3.237300,-3.237300,-9.810000,9.810000,0.700000
0.340000,0.449659,-3.335400,-3.335400,-9.810000,9.810000,0.700000
0.350000,0.416305,-3.433500,-3.433500,-9.810000,9.810000,0.700000
0.360000,0.381970,-3.531600,-3.531600,-9.810000,9.810000,0.700000
0.370000,0.346654,-3.629700,-3.629700,-9.810000,9.810000,0.700000
0.380000,0.310357,-3.727800,-3.727800,-9.810000,9.810000,0.700000
0.390000,0.273079,-3.825900,-3.825900,-9.810000,9.810000,0.700000
0.400000,0.234820,-3.924000,-3.924000,-9.810000,9.810000,0.700000
0.410000,0.195580,-4.022100,-4.022100,-9.810000,9.810000,0.700000
0.420000,0.155359,-4.120200,-4.120200,-9.810000,9.810000,0.700000
0.430000,0.114157,-4.218300,-4.218300,-9.810000,9.810000,0.700000
0.440000,0.071974,-4.316400,-4.316400,-9.810000,9.810000,0.700000
0.450000,0.028810,-4.414500,-4.414500,-9.810000,9.810000,0.700000
0.460000,-0.015335,3.158820,3.158820,-9.810000,9.810000,0.700000
0.470000,0.016253,3.060720,3.060720,-9.810000,9.810000,0.700000
0.480000,0.046860,2.962620,2.962620,-9.810000,9.810000,0.700000
0.490000,0.076487,2.864520,2.864520,-9.810000,9.810000,0.700000
0.500000,0.105132,2.766420,2.766420,-9.810000,9.810000,0.700000
0.510000,0.132796,2.668320,2.668320,-9.810000,9.810000,0.700000
0.520000,0.159479,2.570220,2.570220,-9.810000,9.810000,0.700000
0.530000,0.185181,2.472120,2.472120,-9.810000,9.810000,0.700000
0.540000,0.209903,2.374020,2.374020,-9.810000,9.810000,0.700000
0.550000,0.233643,2.275920,2.275920,-9.810000,9.810000,0.700000
0.560000,0.256402,2.177820,2.177820,-9.810000,9.810000,0.700000
0.570000,0.278180,2.079720,2.079720,-9.810000,9.810000,0.700000
0.580000,0.298977,1.981620,1.981620,-9.810000,9.810000,0.700000
0.590000,0.318794,1.883520,1.883520,-9.810000,9.810000,0.700000
0.600000,0.337629,1.785420,1.785420,-9.810000,9.810000,0.700000
0.610000,0.355483,1.687320,1.687320,-9.810000,9.810000,0.700000
0.620000,0.372356,1.589220,1.589220,-9.810000,9.810000,0.700000
0.630000,0.388248,1.491120,1.491120,-9.810000,9.810000,0.700000
0.640000,0.403160,1.393020,1.393020,-9.810000,9.810000,0.700000
0.650000,0.417090,1.294920,1.294920,-9.810000,9.810000,0.700000
0.660000,0.430039,1.196820,1.196820,-9.810000,9.810000,0.700000
0.670000,0.442007,1.098720,1.098720,-9.810000,9.810000,0.700000
0.680000,0.452994,1.000620,1.000620,-9.810000,9.810000,0.700000
0.690000,0.463001,0.902520,0.902520,-9.810000,9.810000,0.700000
0.700000,0.472026,0.804420,0.804420,-9.810000,9.810000,0.700000
0.710000,0.480070,0.706320,0.706320,-9.810000,9.810000,0.700000
0.720000,0.487133,0.608220,0.608220,-9.810000,9.810000,0.700000
0.730000,0.493215,0.510120,0.510120,-9.810000,9.810000,0.700000
0.740000,0.498317,0.412020,0.412020,-9.810000,9.810000,0.700000
0.750000,0.502437,0.313920,0.313920,-9.810000,9.810000,0.700000
0.760000,0.505576,0.215820,0.215820,-9.810000,9.810000,0.700000
0.770000,0.507734,0.117720,0.117720,-9.810000,9.810000,0.700000
0.780000,0.508911,0.019620,0.019620,-9.810000,9.810000,0.700000
0.790000,0.509108,-0.078480,-0.078480,-9.810000,9.810000,0.700000
0.800000,0.508323,-0.176580,-0.176580,-9.810000,9.810000,0.700000
0.810000,0.506557,-0.274680,-0.274680,-9.810000,9.810000,0.700000
0.820000,0.503810,-0.372780,-0.372780,-9.810000,9.810000,0.700000
0.830000,0.500082,-0.470880,-0.470880,-9.810000,9.810000,0.700000
0.840000,0.495374,-0.568980,-0.568980,-9.810000,9.810000,0.700000
0.850000,0.489684,-0.667080,-0.667080,-9.810000,9.810000,0.700000
0.860000,0.483013,-0.765180,-0.765180,-9.810000,9.810000,0.700000
0.870000,0.475361,-0.863280,-0.863280,-9.810000,9.810000,0.700000
0.880000,0.466728,-0.961380,-0.961380,-9.810000,9.810000,0.700000
0.890000,0.457115,-1.059480,-1.059480,-9.810000,9.810000,0.700000
0.900000,0.446520,-1.157580,-1.157580,-9.810000,9.810000,0.700000
0.910000,0.434944,-1.255680,-1.255680,-9.810000,9.810000,0.700000
0.920000,0.422387,-1.353780,-1.353780,-9.810000,9.810000,0.700000
0.930000,0.408849,-1.451880,-1.451880,-9.810000,9.810000,0.700000
0.940000,0.394331,-1.549980,-1.549980,-9.810000,9.810000,0.700000
0.950000,0.378831,-1.648080,-1.648080,-9.810000,9.810000,0.700000
0.960000,0.362350,-1.746180,-1.746180,-9.810000,9.810000,0.700000
0.970000,0.344888,-1.844280,-1.844280,-9.810000,9.810000,0.700000
0.980000,0.326445,-1.942380,-1.942380,-9.810000,9.810000,0.700000
0.990000,0.307022,-2.040480,-2.040480,-9.810000,9.810000,0.700000
1.000000,0.286617,-2.138580,-2.138580,-9.810000,9.810000,0.700000
1.010000,0.265231,-2.236680,-2.236680,-9.810000,9.810000,0.700000
1.020000,0.242864,-2.334780,-2.334780,-9.810000,9.810000,0.700000
1.030000,0.219516,-2.432880,-2.432880,-9.810000,9.810000,0.700000
1.040000,0.195188,-2.530980,-2.530980,-9.810000,9.810000,0.700000
1.050000,0.169878,-2.629080,-2.629080,-9.810000,9.810000,0.700000
1.060000,0.143587,-2.727180,-2.727180,-9.810000,9.810000,0.700000
1.070000,0.116315,-2.825280,-2.825280,-9.810000,9.810000,0.700000
1.080000,0.088062,-2.923380,-2.923380,-9.810000,9.810000,0.700000
1.090000,0.058829,-3.021480,-3.021480,-9.810000,9.810000,0.700000
1.100000,0.028614,-3.119580,-3.119580,-9.810000,9.810000,0.700000
1.110000,-0.002582,2.252376,2.252376,-9.810000,9.810000,0.700000
1.120000,0.019942,2.154276,2.154276,-9.810000,9.810000,0.700000
1.130000,0.041485,2.056176,2.056176,-9.810000,9.810000,0.700000
1.140000,0.062046,1.958076,1.958076,-9.810000,9.810000,0.700000
1.150000,0.081627,1.859976,1.859976,-9.810000,9.810000,0.700000
1.160000,0.100227,1.761876,1.761876,-9.810000,9.810000,0.700000
1.170000,0.117846,1.663776,1.663776,-9.810000,9.810000,0.700000
1.180000,0.134483,1.565676,1.565676,-9.810000,9.810000,0.700000
1.190000,0.150140,1.467576,1.467576,-9.810000,9.810000,0.700000
1.200000,0.164816,1.369476,1.369476,-9.810000,9.810000,0.700000
1.210000,0.178511,1.271376,1.271376,-9.810000,9.810000,0.700000
1.220000,0.191224,1.173276,1.173276,-9.810000,9.810000,0.700000
1.230000,0.202957,1.075176,1.075176,-9.810000,9.810000,0.700000
1.240000,0.213709,0.977076,0.977076,-9.810000,9.810000,0.700000
1.250000,0.223480,0.878976,0.878976,-9.810000,9.810000,0.700000
1.260000,0.232269,0.780876,0.780876,-9.810000,9.810000,0.700000
1.270000,0.240078,0.682776,0.682776,-9.810000,9.810000,0.700000
1.280000,0.246906,0.584676,0.584676,-9.810000,9.810000,0.700000
1.290000,0.252753,0.486576,0.486576,-9.810000,9.810000,0.700000
1.300000,0.257618,0.388476,0.388476,-9.810000,9.810000,0.700000
1.310000,0.261503,0.290376,0.290376,-9.810000,9.810000,0.700000
1.320000,0.264407,0.192276,0.192276,-9.810000,9.810000,0.700000
1.330000,0.266330,0.094176,0.094176,-9.810000,9.810000,0.700000
1.340000,0.267271,-0.003924,-0.003924,-9.810000,9.810000,0.700000
1.350000,0.267232,-0.102024,-0.102024,-9.810000,9.810000,0.700000
1.360000,0.266212,-0.200124,-0.200124,-9.810000,9.810000,0.700000
1.370000,0.264211,-0.298224,-0.298224,-9.810000,9.810000,0.700000
1.380000,0.261229,-0.396324,-0.396324,-9.810000,9.810000,0.700000
1.390000,0.257265,-0.494424,-0.494424,-9.810000,9.810000,0.700000
1.400000,0.252321,-0.592524,-0.592524,-9.810000,9.810000,0.700000
1.410000,0.246396,-0.690624,-0.690624,-9.810000,9.810000,0.700000
1.420000,0.239490,-0.788724,-0.788724,-9.810000,9.810000,0.700000
1.430000,0.231602,-0.886824,-0.886824,-9.810000,9.810000,0.700000
1.440000,0.222734,-0.984924,-0.984924,-9.810000,9.810000,0.700000
1.450000,0.212885,-1.083024,-1.083024,-9.810000,9.810000,0.700000
1.460000,0.202055,-1.181124,-1.181124,-9.810000,9.810000,0.700000
1.470000,0.190243,-1.279224,-1.279224,-9.810000,9.810000,0.700000
1.480000,0.177451,-1.377324,-1.377324,-9.810000,9.810000,0.700000
1.490000,0.163678,-1.475424,-1.475424,-9.810000,9.810000,0.700000
1.500000,0.148924,-1.573524,-1.573524,-9.810000,9.810000,0.700000
1.510000,0.133188,-1.671624,-1.671624,-9.810000,9.810000,0.700000
1.520000,0.116472,-1.769724,-1.769724,-9.810000,9.810000,0.700000
1.530000,0.098775,-1.867824,-1.867824,-9.810000,9.810000,0.700000
1.540000,0.080097,-1.965924,-1.965924,-9.810000,9.810000,0.700000
1.550000,0.060437,-2.064024,-2.064024,-9.810000,9.810000,0.700000
1.560000,0.039797,-2.162124,-2.162124,-9.810000,9.810000,0.700000
1.570000,0.018176,-2.260224,-2.260224,-9.810000,9.810000,0.700000
1.580000,-0.004426,1.650827,1.650827,-9.810000,9.810000,0.700000
1.590000,0.012082,1.552727,1.552727,-9.810000,9.810000,0.700000
1.600000,0.027609,1.454627,1.454627,-9.810000,9.810000,0.700000
1.610000,0.042156,1.356527,1.356527,-9.810000,9.810000,0.700000
1.620000,0.055721,1.258427,1.258427,-9.810000,9.810000,0.700000
1.630000,0.068305,1.160327,1.160327,-9.810000,9.810000,0.700000
1.640000,0.079908,1.062227,1.062227,-9.810000,9.810000,0.700000
1.650000,0.090531,0.964127,0.964127,-9.810000,9.810000,0.700000
1.660000,0.100172,0.866027,0.866027,-9.810000,9.810000,0.700000
1.670000,0.108832,0.767927,0.767927,-9.810000,9.810000,0.700000
1.680000,0.116511,0.669827,0.669827,-9.810000,9.810000,0.700000
1.690000,0.123210,0.571727,0.571727,-9.810000,9.810000,0.700000
1.700000,0.128927,0.473627,0.473627,-9.810000,9.810000,0.700000
1.710000,0.133663,0.375527,0.375527,-9.810000,9.810000,0.700000
1.720000,0.137418,0.277427,0.277427,-9.810000,9.810000,0.700000
1.730000,0.140193,0.179327,0.179327,-9.810000,9.810000,0.700000
1.740000,0.141986,0.081227,0.081227,-9.810000,9.810000,0.700000
1.750000,0.142798,-0.016873,-0.016873,-9.810000,9.810000,0.700000
1.760000,0.142630,-0.114973,-0.114973,-9.810000,9.810000,0.700000
1.770000,0.141480,-0.213073,-0.213073,-9.810000,9.810000,0.700000
1.780000,0.139349,-0.311173,-0.311173,-9.810000,9.810000,0.700000
1.790000,0.136237,-0.409273,-0.409273,-9.810000,9.810000,0.700000
1.800000,0.132145,-0.507373,-0.507373,-9.810000,9.810000,0.700000
1.810000,0.127071,-0.605473,-0.605473,-9.810000,9.810000,0.700000
1.820000,0.121016,-0.703573,-0.703573,-9.810000,9.810000,0.700000
1.830000,0.113980,-0.801673,-0.801673,-9.810000,9.810000,0.700000
1.840000,0.105964,-0.899773,-0.899773,-9.810000,9.810000,0.700000
1.850000,0.096966,-0.997873,-0.997873,-9.810000,9.810000,0.700000
1.860000,0.086987,-1.095973,-1.095973,-9.810000,9.810000,0.700000
1.870000,0.076027,-1.194073,-1.194073,-9.810000,9.810000,0.700000
1.880000,0.064087,-1.292173,-1.292173,-9.810000,9.810000,0.700000
1.890000,0.051165,-1.390273,-1.390273,-9.810000,9.810000,0.700000
1.900000,0.037262,-1.488373,-1.488373,-9.810000,9.810000,0.700000
1.910000,0.022379,-1.586473,-1.586473,-9.810000,9.810000,0.700000
1.920000,0.006514,-1.684573,-1.684573,-9.810000,9.810000,0.700000
1.930000,-0.010332,1.247871,1.247871,-9.810000,9.810000,0.700000
1.940000,0.002147,1.149771,1.149771,-9.810000,9.810000,0.700000
1.950000,0.013645,1.051671,1.051671,-9.810000,9.810000,0.700000
1.960000,0.024161,0.953571,0.953571,-9.810000,9.810000,0.700000
1.970000,0.033697,0.855471,0.855471,-9.810000,9.810000,0.700000
1.980000,0.042252,0.757371,0.757371,-9.810000,9.810000,0.700000
1.990000,0.049825,0.659271,0.659271,-9.810000,9.810000,0.700000
2.000000,0.056418,0.561171,0.561171,-9.810000,9.810000,0.700000
2.010000,0.062030,0.463071,0.463071,-9.810000,9.810000,0.700000
2.020000,0.066661,0.364971,0.364971,-9.810000,9.810000,0.700000
2.030000,0.070310,0.266871,0.266871,-9.810000,9.810000,0.700000
2.040000,0.072979,0.168771,0.168771,-9.810000,9.810000,0.700000
2.050000,0.074667,0.070671,0.070671,-9.810000,9.810000,0.700000
2.060000,0.075373,-0.027429,-0.027429,-9.810000,9.810000,0.700000
2.070000,0.075099,-0.125529,-0.125529,-9.810000,9.810000,0.700000
2.080000,0.073844,-0.223629,-0.223629,-9.810000,9.810000,0.700000
2.090000,0.071607,-0.321729,-0.321729,-9.810000,9.810000,0.700000
2.100000,0.068390,-0.419829,-0.419829,-9.810000,9.810000,0.700000
2.110000,0.064192,-0.517929,-0.517929,-9.810000,9.810000,0.700000
2.120000,0.059013,-0.616029,-0.616029,-9.810000,9.810000,0.700000
2.130000,0.052852,-0.714129,-0.714129,-9.810000,9.810000,0.700000
2.140000,0.045711,-0.812229,-0.812229,-9.810000,9.810000,0.700000
2.150000,0.037589,-0.910329,-0.910329,-9.810000,9.810000,0.700000
2.160000,0.028485,-1.008429,-1.008429,-9.810000,9.810000,0.700000
2.170000,0.018401,-1.106529,-1.106529,-9.810000,9.810000,0.700000
2.180000,0.007336,-1.204629,-1.204629,-9.810000,9.810000,0.700000
2.190000,-0.004710,0.911910,0.911910,-9.810000,9.810000,0.700000
2.200000,0.004409,0.813810,0.813810,-9.810000,9.810000,0.700000
2.210000,0.012547,0.715710,0.715710,-9.810000,9.810000,0.700000
2.220000,0.019704,0.617610,0.617610,-9.810000,9.810000,0.700000
2.230000,0.025880,0.519510,0.519510,-9.810000,9.810000,0.700000
2.240000,0.031075,0.421410,0.421410,-9.810000,9.810000,0.700000
2.250000,0.035289,0.323310,0.323310,-9.810000,9.810000,0.700000
2.260000,0.038522,0.225210,0.225210,-9.810000,9.810000,0.700000
2.270000,0.040774,0.127110,0.127110,-9.810000,9.810000,0.700000
2.280000,0.042046,0.029010,0.029010,-9.810000,9.810000,0.700000
2.290000,0.042336,-0.069090,-0.069090,-9.810000,9.810000,0.700000
2.300000,0.041645,-0.167190,-0.167190,-9.810000,9.810000,0.700000
2.310000,0.039973,-0.265290,-0.265290,-9.810000,9.810000,0.700000
2.320000,0.037320,-0.363390,-0.363390,-9.810000,9.810000,0.700000
2.330000,0.033686,-0.461490,-0.461490,-9.810000,9.810000,0.700000
2.340000,0.029071,-0.559590,-0.559590,-9.810000,9.810000,0.700000
2.350000,0.023475,-0.657690,-0.657690,-9.810000,9.810000,0.700000
2.360000,0.016898,-0.755790,-0.755790,-9.810000,9.810000,0.700000
2.370000,0.009340,-0.853890,-0.853890,-9.810000,9.810000,0.700000
2.380000,0.000802,-0.951990,-0.951990,-9.810000,9.810000,0.700000
2.390000,-0.008718,0.735063,0.735063,-9.810000,9.810000,0.700000
2.400000,-0.001368,0.636963,0.636963,-9.810000,9.810000,0.700000
2.410000,0.005002,0.538863,0.538863,-9.810000,9.810000,0.700000
2.420000,0.010391,0.440763,0.440763,-9.810000,9.810000,0.700000
2.430000,0.014798,0.342663,0.342663,-9.810000,9.810000,0.700000
2.440000,0.018225,0.244563,0.244563,-9.810000,9.810000,0.700000
2.450000,0.020670,0.146463,0.146463,-9.810000,9.810000,0.700000
2.460000,0.022135,0.048363,0.048363,-9.810000,9.810000,0.700000
2.470000,0.022619,-0.049737,-0.049737,-9.810000,9.810000,0.700000
2.480000,0.022121,-0.147837,-0.147837,-9.810000,9.810000,0.700000
2.490000,0.020643,-0.245937,-0.245937,-9.810000,9.810000,0.700000
2.500000,0.018184,-0.344037,-0.344037,-9.810000,9.810000,0.700000
2.510000,0.014743,-0.442137,-0.442137,-9.810000,9.810000,0.700000
2.520000,0.010322,-0.540237,-0.540237,-9.810000,9.810000,0.700000
2.530000,0.004919,-0.638337,-0.638337,-9.810000,9.810000,0.700000
2.540000,-0.001464,0.515506,0.515506,-9.810000,9.810000,0.700000
2.550000,0.003691,0.417406,0.417406,-9.810000,9.810000,0.700000
2.560000,0.007865,0.319306,0.319306,-9.810000,9.810000,0.700000
2.570000,0.011058,0.221206,0.221206,-9.810000,9.810000,0.700000
2.580000,0.013270,0.123106,0.123106,-9.810000,9.810000,0.700000
2.590000,0.014501,0.025006,0.025006,-9.810000,9.810000,0.700000
2.600000,0.014751,-0.073094,-0.073094,-9.810000,9.810000,0.700000
2.610000,0.014021,-0.171194,-0.171194,-9.810000,9.810000,0.700000
2.620000,0.012309,-0.269294,-0.269294,-9.810000,9.810000,0.700000
2.630000,0.009616,-0.367394,-0.367394,-9.810000,9.810000,0.700000
2.640000,0.005942,-0.465494,-0.465494,-9.810000,9.810000,0.700000
2.650000,0.001287,-0.563594,-0.563594,-9.810000,9.810000,0.700000
2.660000,-0.004349,0.463186,0.463186,-9.810000,9.810000,0.700000
2.670000,0.000283,0.365086,0.365086,-9.810000,9.810000,0.700000
2.680000,0.003934,0.266986,0.266986,-9.810000,9.810000,0.700000
2.690000,0.006603,0.168886,0.168886,-9.810000,9.810000,0.700000
2.700000,0.008292,0.070786,0.070786,-9.810000,9.810000,0.700000
2.710000,0.009000,-0.027314,-0.027314,-9.810000,9.810000,0.700000
2.720000,0.008727,-0.125414,-0.125414,-9.810000,9.810000,0.700000
2.730000,0.007473,-0.223514,-0.223514,-9.810000,9.810000,0.700000
2.740000,0.005238,-0.321614,-0.321614,-9.810000,9.810000,0.700000
2.750000,0.002022,-0.419714,-0.419714,-9.810000,9.810000,0.700000
2.760000,-0.002176,0.362470,0.362470,-9.810000,9.810000,0.700000
2.770000,0.001449,0.264370,0.264370,-9.810000,9.810000,0.700000
2.780000,0.004093,0.166270,0.166270,-9.810000,9.810000,0.700000
2.790000,0.005755,0.068170,0.068170,-9.810000,9.810000,0.700000
2.800000,0.006437,-0.029930,-0.029930,-9.810000,9.810000,0.700000
2.810000,0.006138,-0.128030,-0.128030,-9.810000,9.810000,0.700000
2.820000,0.004858,-0.226130,-0.226130,-9.810000,9.810000,0.700000
2.830000,0.002596,-0.324230,-0.324230,-9.810000,9.810000,0.700000
2.840000,-0.000646,0.295631,0.295631,-9.810000,9.810000,0.700000
2.850000,0.002310,0.197531,0.197531,-9.810000,9.810000,0.700000
2.860000,0.004286,0.099431,0.099431,-9.810000,9.810000,0.700000
2.870000,0.005280,0.001331,0.001331,-9.810000,9.810000,0.700000
2.880000,0.005293,-0.096769,-0.096769,-9.810000,9.810000,0.700000
2.890000,0.004326,-0.194869,-0.194869,-9.810000,9.810000,0.700000
2.900000,0.002377,-0.292969,-0.292969,-9.810000,9.810000,0.700000
2.910000,-0.000553,0.273748,0.273748,-9.810000,9.810000,0.700000
2.920000,0.002185,0.175648,0.175648,-9.810000,9.810000,0.700000
2.930000,0.003941,0.077548,0.077548,-9.810000,9.810000,0.700000
2.940000,0.004717,-0.020552,-0.020552,-9.810000,9.810000,0.700000
2.950000,0.004511,-0.118652,-0.118652,-9.810000,9.810000,0.700000
2.960000,0.003325,-0.216752,-0.216752,-9.810000,9.810000,0.700000
2.970000,0.001157,-0.314852,-0.314852,-9.810000,9.810000,0.700000
2.980000,-0.001991,0.289066,0.289066,-9.810000,9.810000,0.700000
2.990000,0.000899,0.190966,0.190966,-9.810000,9.810000,0.700000
3.000000,0.002809,0.092866,0.092866,-9.810000,9.810000,0.700000
3.010000,0.003738,-0.005234,-0.005234,-9.810000,9.810000,0.700000
3.020000,0.003685,-0.103334,-0.103334,-9.810000,9.810000,0.700000
3.030000,0.002652,-0.201434,-0.201434,-9.810000,9.810000,0.700000
3.040000,0.000638,-0.299534,-0.299534,-9.810000,9.810000,0.700000
3.050000,-0.002358,0.278344,0.278344,-9.810000,9.810000,0.700000
