    "time","tempc@tpf_st_chamber","press@tpf_st_chamber","out2@division","tau@tpf_st_chamber","dm2@tpf_pump","torque@expseu_"
         0, 19.903957,   0.02337,      0.24,        25,0.13032082,         0
      0.05, 20.335262,0.024001804,0.24043615, 25.043615,0.13033783,0.56231143
       0.1, 20.771178,0.024655467,0.24087316, 25.087316,0.13035481,0.57104912
      0.15, 21.205996,0.025322912,0.24131077, 25.131077,0.13037176,0.57984573
       0.2, 21.639712,0.026004323,0.24174897, 25.174897,0.13038868,0.58869993
      0.25, 22.072326,0.026699885,0.24218775, 25.218775,0.13040557,0.59761036
       0.3, 22.503836,0.027409782,0.24262711, 25.262711,0.13042244,0.60657562
      0.35, 22.934239,0.028134202,0.24306703, 25.306703,0.13043928,0.61559426
       0.4, 23.363535,0.028873329,0.24350753, 25.350753,0.13045609,0.62466483
      0.45, 23.791211,0.029626439,0.24394706, 25.394706,0.12841594,0.63377521
       0.5, 24.213583,0.030386952,0.24437466, 25.437466, 0.1239687, 0.6428357
      0.55,  24.63012,0.031153558,0.24478848, 25.478848, 0.1196641,0.65182711
       0.6, 25.041058,0.03192631,0.24518896, 25.518896,0.11549764,0.66075069
      0.65, 25.446621,0.032705266,0.24557653, 25.557653,0.11146494,0.66960774
       0.7, 25.847026,0.033490492,0.24595159, 25.595159,0.10756179,0.67839953
      0.75,  26.24248,0.03428206,0.24631455, 25.631455,0.10378407,0.68712736
       0.8,  26.63318,0.035080048,0.24666579, 25.666579,0.10012779, 0.6957925
      0.85, 27.019316,0.035884542,0.24700568, 25.700568,0.096589092,0.70439624
       0.9, 27.401072,0.036695632, 0.2473346,  25.73346,0.093164234,0.71293983
      0.95, 27.778621,0.037513414,0.24765288, 25.765288,0.089849582,0.72142453
         1,  28.15213,0.038337989,0.24796087, 25.796087,0.086641615,0.72985158
      1.05, 28.521762,0.039169463,0.24825891, 25.825891,0.083536922,0.73822218
       1.1, 28.887669,0.040007946,0.24854731, 25.854731,0.080532197,0.74653752
      1.15,     29.25,0.040853553,0.24882637, 25.882637,0.077624235,0.75479876
       1.2, 29.608897,0.041706402,0.24909642, 25.909642,0.074809929,0.76300704
      1.25, 29.964496,0.042566617,0.24935772, 25.935772,0.072086271,0.77116346
       1.3, 30.316927,0.043434324,0.24961057, 25.961057,0.069450346,0.77926911
      1.35, 30.666318,0.044309653,0.24985524, 25.985524,0.066899327,0.78732502
       1.4, 31.012787,0.045192737,  0.250092,   26.0092,0.064430478,0.79533222
      1.45,  31.35645,0.046083712, 0.2503211,  26.03211,0.06204115,0.80329166
       1.5,  31.69742,0.046982717,0.25054278, 26.054278,0.059728774, 0.8112043
      1.55, 32.035802,0.047889895,0.25075729, 26.075729,0.057490862,0.81907105
       1.6, 32.371699,0.04880539,0.25096487, 26.096487,0.055325007,0.82689276
      1.65, 32.705211,0.04972935,0.25116574, 26.116574,0.053228876,0.83467027
       1.7,  33.03643,0.050661924,0.25136011, 26.136011,0.051200208,0.84240437
      1.75, 33.365449,0.051603264, 0.2515482,  26.15482,0.049236818,0.85009581
       1.8, 33.692355,0.052553524,0.25173021, 26.173021,0.047336586,0.85774531
      1.85, 34.017232,0.053512861,0.25190634, 26.190634,0.045497461,0.86535356
       1.9,  34.34016,0.054481433,0.25207679, 26.207679,0.043717457,0.87292117
      1.95, 34.661218, 0.0554594,0.25224173, 26.224173,0.041994652,0.88044875
         2, 34.980479,0.056446923,0.25240135, 26.240135,0.040327184,0.88793687
      2.05, 35.298015,0.057444168,0.25255582, 26.255582,0.038713251,0.89538603
       2.1, 35.613896,0.058451299,0.25270532, 26.270532,0.037151108,0.90279673
      2.15, 35.928188,0.059468483,0.25284999, 26.284999,0.035639067,0.91016938
       2.2, 36.240954,0.060495889,0.25299001, 26.299001,0.034175493,0.91750441
      2.25, 36.552256,0.061533688,0.25312552, 26.312552,0.032758807,0.92480217
       2.3, 36.862152,0.062582051,0.25325668, 26.325668,0.031387476,0.93206299
      2.35,   37.1707,0.063641151,0.25338362, 26.338362,0.030060016,0.93928715
       2.4, 37.477954,0.064711163,0.25350648, 26.350648,0.028774991, 0.9464749
      2.45, 37.783965,0.065792261,0.25362539, 26.362539,0.027531015,0.95362644
       2.5, 38.088786,0.066884623, 0.2537405,  26.37405,0.026326742,0.96074195
      2.55, 38.392463,0.067988427,0.25385191, 26.385191,0.025160874,0.96782156
       2.6, 38.695044,0.069103854,0.25395976, 26.395976,0.024032151,0.97486536
      2.65, 38.996574,0.070231083,0.25406416, 26.406416,0.022939357,0.98187342
       2.7, 39.297096,0.071370298,0.25416523, 26.416523,0.021881313,0.98884577
      2.75, 39.596651,0.07252168,0.25426306, 26.426306,0.020856879,0.99578238
       2.8, 39.895279,0.073685415,0.25435778, 26.435778,0.019864952, 1.0026832
      2.85,  40.19302,0.074861692,0.25444948, 26.444948,0.018904472, 1.0095482
       2.9,  40.48991,0.076050697,0.25453826, 26.453826,0.017974406, 1.0163773
      2.95, 40.785984,0.07725261,0.25462423, 26.462423,0.017073739, 1.0231701
         3, 41.081276,0.078467624,0.25470746, 26.470746,0.016201509, 1.0299267
      3.05, 41.375819,0.079695928,0.25478806, 26.478806,0.015356784, 1.0366467
       3.1, 41.669645,0.080937715, 0.2548661,  26.48661,0.014538659, 1.0433298
      3.15, 41.962785,0.082193177,0.25494168, 26.494168,0.01374626, 1.0499759
       3.2, 42.255268,0.083462508,0.25501487, 26.501487,0.012978741, 1.0565846
      3.25, 42.547122,0.084745902,0.25508576, 26.508576,0.012235281, 1.0631555
       3.3, 42.838374,0.086043554,0.25515441, 26.515441,0.011515089, 1.0696882
      3.35, 43.129052,0.087355661,0.25522091, 26.522091,0.010817398, 1.0761824
       3.4, 43.419179,0.088682422,0.25528532, 26.528532,0.010141467, 1.0826375
      3.45,  43.70878,0.090024034,0.25534772, 26.534772,0.0094865777, 1.0890531
       3.5, 43.997878,0.091380699,0.25540817, 26.540817,0.0088520375, 1.0954287
      3.55, 44.286496,0.092752617,0.25546673, 26.546673,0.0082371749, 1.1017637
       3.6, 44.574656,0.09413999,0.25552347, 26.552347,0.0076413407, 1.1080576
      3.65, 44.862378,0.095543022,0.25557845, 26.557845,0.0070639076, 1.1143097
       3.7, 45.149681,0.096961918,0.25563172, 26.563172,0.0065042677, 1.1205194
      3.75, 45.436586,0.098396883,0.25568335, 26.568335,0.0059618337,  1.126686
       3.8, 45.723111,0.099848123,0.25573338, 26.573338,0.0054360357, 1.1328089
      3.85, 46.009274,0.10131585,0.25578187, 26.578187,0.0049263191, 1.1388873
       3.9, 46.295091,0.10280027,0.25582888, 26.582888,0.0044321366, 1.1449204
      3.95,  46.58058,0.10430159,0.25587444, 26.587444,0.003952929, 1.1509076
         4, 46.865756,0.10582002,0.25591861, 26.591861,0.0034880816, 1.1568479
      4.05, 47.150634,0.10735579,0.25596143, 26.596143,0.0030368279, 1.1627405
       4.1, 47.435228,0.10890908,0.25600295, 26.600295,0.0025980696, 1.1685846
      4.15, 47.719551,0.11048013, 0.2560432,  26.60432,0.0021700959, 1.1743792
       4.2, 48.003615,0.11206912,0.25608221, 26.608221,0.0017503536, 1.1801233
      4.25, 48.287429,0.11367625,0.25612001, 26.612001,0.0013359666, 1.1858158
       4.3, 48.570999,0.11530172,0.25615661, 26.615661,0.00092698672, 1.1914556
      4.35, 48.854337,0.11694572,0.25619203, 26.619203,0.00053497521, 1.1970418
       4.4,  49.13747,0.11860857,0.25622639, 26.622639,0.0001915253, 1.2025736
      4.45, 49.420455,0.12029076,0.25625994, 26.625994,         0, 1.2080514
       4.5, 49.703457,0.12199347,0.25629343, 26.629343,         0, 1.2134783
      4.55,  49.98652,0.12371717,0.25632708, 26.632708,         0, 1.2188544
       4.6, 50.269645,0.12546208,0.25636088, 26.636088,         0,  1.224178
      4.65, 50.552829, 0.1272284,0.25639484, 26.639484,         0, 1.2294476
       4.7, 50.836073,0.12901636,0.25642896, 26.642896,         0, 1.2346617
      4.75, 51.119375,0.13082617,0.25646322, 26.646322,         0, 1.2398186
       4.8, 51.402734,0.13265804,0.25649765, 26.649765,         0, 1.2449169
      4.85, 51.686149, 0.1345122,0.25653222, 26.653222,         0, 1.2499548
       4.9,  51.96962,0.13638886,0.25656695, 26.656695,         0, 1.2549307
      4.95, 52.253145,0.13828826,0.25660183, 26.660183,         0, 1.2598431
         5, 52.536725,0.14021061,0.25663687, 26.663687,         0, 1.2646902
      5.05, 52.820358,0.14215615,0.25667205, 26.667205,         0, 1.2694703
       5.1, 53.104043,0.14412509,0.25670739, 26.670739,         0, 1.2741818
      5.15,  53.38778,0.14611768,0.25674287, 26.674287,         0,  1.278823
       5.2, 53.671567,0.14813413,0.25677851, 26.677851,         0,  1.283392
      5.25, 53.955405,0.15017468,0.25681429, 26.681429,         0, 1.2878872
       5.3, 54.239292,0.15223957,0.25685023, 26.685023,         0, 1.2923068
      5.35, 54.523227,0.15432903,0.25688631, 26.688631,         0,  1.296649
       5.4, 54.807209, 0.1564433,0.25692254, 26.692254,         0,  1.300912
      5.45, 55.091239,0.15858262,0.25695892, 26.695892,         0, 1.3050939
       5.5, 55.375314,0.16074722,0.25699544, 26.699544,         0, 1.3091929
      5.55, 55.659435,0.16293735,0.25703211, 26.703211,         0, 1.3132071
       5.6, 55.943599,0.16515325,0.25706893, 26.706893,         0, 1.3171347
      5.65, 56.227808,0.16739517,0.25710589, 26.710589,         0, 1.3209737
       5.7, 56.512059,0.16966335,  0.257143,   26.7143,         0, 1.3247223
      5.75, 56.796352,0.17195805,0.25718025, 26.718025,         0, 1.3283784
       5.8, 57.080687, 0.1742795,0.25721765, 26.721765,         0, 1.3319402
      5.85, 57.365061,0.17662797,0.25725519, 26.725519,         0, 1.3354055
       5.9, 57.649476,0.17900371,0.25729287, 26.729287,         0, 1.3387725
      5.95, 57.933929,0.18140697, 0.2573307,  26.73307,         0, 1.3420392
         6, 58.218421,  0.183838,0.25736866, 26.736866,         0, 1.3452034
      6.05, 58.502949,0.18629707,0.25740677, 26.740677,         0, 1.3482631
       6.1, 58.787514,0.18878443,0.25744502, 26.744502,         0, 1.3512162
      6.15, 59.072115,0.19130035,0.25748341, 26.748341,         0, 1.3540607
       6.2, 59.356751,0.19384509,0.25752194, 26.752194,         0, 1.3567944
      6.25, 59.641421,0.19641891,0.25756062, 26.756062,         0, 1.3594152
       6.3, 59.926125,0.19902208,0.25759943, 26.759943,         0,  1.361921
      6.35, 60.210861,0.20165487,0.25763837, 26.763837,         0, 1.3643095
       6.4, 60.495629,0.20431754,0.25767746, 26.767746,         0, 1.3665785
      6.45, 60.780428,0.20701037,0.25771669, 26.771669,         0, 1.3687259
       6.5, 61.065258,0.20973363,0.25775605, 26.775605,         0, 1.3707494
      6.55, 61.350117,0.21248759,0.25779555, 26.779555,         0, 1.3726467
       6.6, 61.635006,0.21527254,0.25783519, 26.783519,         0, 1.3744156
      6.65, 61.919922,0.21808874,0.25787496, 26.787496,         0, 1.3760537
       6.7, 62.204866,0.22093648,0.25791487, 26.791487,         0, 1.3775588
      6.75, 62.489837,0.22381604,0.25795491, 26.795491,         0, 1.3789285
       6.8, 62.774833,0.22672769,0.25799509, 26.799509,         0, 1.3801605
      6.85, 63.059855,0.22967174, 0.2580354,  26.80354,         0, 1.3812523
       6.9, 63.344901,0.23264845,0.25807584, 26.807584,         0, 1.3822016
      6.95,  63.62997,0.23565812,0.25811642, 26.811642,         0,  1.383006
         7, 63.915063,0.23870104,0.25815713, 26.815713,         0, 1.3836629
      7.05, 64.200178,0.24177749,0.25819798, 26.819798,         0,   1.38417
       7.1, 64.485314,0.24488777,0.25823895, 26.823895,         0, 1.3845248
      7.15, 64.770471,0.24803218,0.25828006, 26.828006,         0, 1.3847248
       7.2, 65.055649,0.25121101, 0.2583213,  26.83213,         0, 1.3847674
      7.25, 65.340845,0.25442456,0.25836267, 26.836267,         0, 1.3846501
       7.3,  65.62606,0.25767312,0.25840417, 26.840417,         0, 1.3843703
      7.35, 65.911293,  0.260957, 0.2584458,  26.84458,         0, 1.3839255
       7.4, 66.196543, 0.2642765,0.25848755, 26.848755,         0,  1.383313
      7.45, 66.481809,0.26763192,0.25852944, 26.852944,         0, 1.3825302
       7.5, 66.767091,0.27102357,0.25857146, 26.857146,         0, 1.3815745
      7.55, 67.052389,0.27445176, 0.2586136,  26.86136,         0, 1.3804432
       7.6, 67.337699,0.27791679,0.25865587, 26.865587,         0, 1.3791336
      7.65, 67.623024,0.28141897,0.25869827, 26.869827,         0,  1.377643
       7.7, 67.908361,0.28495862,0.25874079, 26.874079,         0, 1.3759686
      7.75,  68.19371,0.28853606,0.25878344, 26.878344,         0, 1.3741077
       7.8,  68.47907,0.29215159,0.25882622, 26.882622,         0, 1.3720575
      7.85, 68.764442,0.29580553,0.25886912, 26.886912,         0, 1.3698153
       7.9, 69.049823,0.29949822,0.25891215, 26.891215,         0, 1.3673782
      7.95, 69.335214,0.30322995, 0.2589553,  26.89553,         0, 1.3647433
         8, 69.620613,0.30700106,0.25899857, 26.899857,         0, 1.3619079
      8.05,  69.90602,0.31081188,0.25904197, 26.904197,         0,  1.358869
       8.1, 70.191434,0.31466272,0.25908549, 26.908549,         0, 1.3556237
      8.15, 70.476855,0.31855391,0.25912913, 26.912913,         0, 1.3521691
       8.2, 70.762282,0.32248579, 0.2591729,  26.91729,         0, 1.3485022
      8.25, 71.047714,0.32645868,0.25921679, 26.921679,         0, 1.3446202
       8.3,  71.33315,0.33047292, 0.2592608,  26.92608,         0, 1.3405199
      8.35,  71.61859,0.33452883,0.25930493, 26.930493,         0, 1.3361984
       8.4, 71.904033,0.33862676,0.25934918, 26.934918,         0, 1.3316527
      8.45, 72.189479,0.34276705,0.25939355, 26.939355,         0, 1.3268797
       8.5, 72.474927,0.34695003,0.25943804, 26.943804,         0, 1.3218763
      8.55, 72.760375,0.35117604,0.25948265, 26.948265,         0, 1.3166394
       8.6, 73.045824,0.35544542,0.25952738, 26.952738,         0, 1.3111659
      8.65, 73.331273,0.35975852,0.25957222, 26.957222,         0, 1.3054527
       8.7,  73.61672,0.36411568,0.25961719, 26.961719,         0, 1.2994966
      8.75, 73.902166,0.36851725,0.25966227, 26.966227,         0, 1.2932944
       8.8,  74.18761,0.37296357,0.25970747, 26.970747,         0, 1.2868429
      8.85,  74.47305,0.37745501,0.25975278, 26.975278,         0, 1.2801389
       8.9, 74.758487, 0.3819919,0.25979821, 26.979821,         0, 1.2731791
      8.95,  75.04392, 0.3865746,0.25984376, 26.984376,         0, 1.2659603
         9, 75.329347,0.39120348,0.25988943, 26.988943,         0, 1.2584792
      9.05, 75.614769,0.39587887, 0.2599352,  26.99352,         0, 1.2507324
       9.1, 75.900184,0.40060115, 0.2599811,  26.99811,         0, 1.2427167
      9.15, 76.185592,0.40537067, 0.2600271,  27.00271,         0, 1.2344286
       9.2, 76.470993, 0.4101878,0.26007322, 27.007322,         0, 1.2258648
      9.25, 76.756385,0.41505289,0.26011946, 27.011946,         0, 1.2170219
       9.3, 77.041768,0.41996631, 0.2601658,  27.01658,         0, 1.2078965
      9.35, 77.327141,0.42492842,0.26021226, 27.021226,         0, 1.1984851
       9.4, 77.612504,0.42993961,0.26025883, 27.025883,         0, 1.1887843
      9.45, 77.897856,0.43500022,0.26030552, 27.030552,         0, 1.1787906
       9.5, 78.183197,0.44011065,0.26035231, 27.035231,         0, 1.1685004
      9.55, 78.468525,0.44527125,0.26039922, 27.039922,         0, 1.1579102
       9.6,  78.75384, 0.4504824,0.26044623, 27.044623,         0, 1.1470165
      9.65, 79.039142,0.45574449,0.26049336, 27.049336,         0, 1.1358158
       9.7,  79.32443,0.46105788,0.26054059, 27.054059,         0, 1.1243043
      9.75, 79.609702,0.46642295,0.26058793, 27.058793,         0, 1.1124785
       9.8,  79.89496,0.47184009,0.26063539, 27.063539,         0, 1.1003348
      9.85, 80.180201,0.47730968,0.26068295, 27.068295,         0, 1.0878694
       9.9, 80.465425, 0.4828321,0.26073062, 27.073062,         0, 1.0750788
      9.95, 80.750632,0.48840774,0.26077839, 27.077839,         0, 1.0619591
        10, 81.035822,0.49403698,0.26082627, 27.082627,         0, 1.0485067
     10.05, 81.320992,0.49972022,0.26087426, 27.087426,         0, 1.0347178
      10.1, 81.606144,0.50545783,0.26092236, 27.092236,         0, 1.0205887
     10.15, 81.891275,0.51125022,0.26097056, 27.097056,         0, 1.0061155
      10.2, 82.176386,0.51709777,0.26101887, 27.101887,         0,0.99129447
     10.25, 82.461475,0.52300087,0.26106728, 27.106728,         0,0.97612169
      10.3, 82.746542,0.52895993, 0.2611158,  27.11158,         0,0.96059329
     10.35, 83.031587,0.53497533,0.26116442, 27.116442,         0,0.94470539
      10.4, 83.316609,0.54104749,0.26121314, 27.121314,         0,0.92845404
     10.45, 83.601607, 0.5471768,0.26126197, 27.126197,         0,0.91183527
      10.5, 83.886581,0.55336366, 0.2613109,  27.13109,         0,0.89484509
     10.55,  84.17153,0.55960848,0.26135994, 27.135994,         0,0.87747944
      10.6, 84.456453,0.56591165,0.26140907, 27.140907,         0,0.85973425
     10.65,  84.74135, 0.5722736,0.26145831, 27.145831,         0,0.84160535
      10.7,  85.02622,0.57869472,0.26150765, 27.150765,         0,0.82308856
     10.75, 85.311063,0.58517542,0.26155709, 27.155709,         0,0.80417957
      10.8, 85.595878,0.59171612,0.26160663, 27.160663,         0,0.78487402
     10.85, 85.880665,0.59831723,0.26165627, 27.165627,         0,0.76516742
      10.9, 86.165422,0.60497916,0.26170601, 27.170601,         0,0.74505511
     10.95, 86.450149,0.61170232,0.26175585, 27.175585,         0,0.72453229
        11, 86.734846,0.61848714,0.26180579, 27.180579,         0, 0.7035939
     11.05, 87.019512,0.62533403,0.26185583, 27.185583,         0,0.68223559
      11.1, 87.304146, 0.6322434,0.26190596, 27.190596,         0,0.66045119
     11.15, 87.588748,0.63921568, 0.2619562,  27.19562,         0,0.63823464
      11.2, 87.873316,0.64625128,0.26200653, 27.200653,         0,0.61557935
     11.25, 88.157851,0.65335064,0.26205695, 27.205695,         0,0.59247806
      11.3, 88.442352,0.66051417,0.26210748, 27.210748,         0,0.56892258
     11.35, 88.726818,0.66774231, 0.2621581,  27.21581,         0,0.54490358
      11.4, 89.011248,0.67503547,0.26220881, 27.220881,         0,0.52041033
     11.45, 89.295643,0.68239409,0.26225962, 27.225962,         0,0.49543035
      11.5, 89.580001,0.68981861,0.26231053, 27.231053,         0,0.46994902
     11.55, 89.864322,0.69730944,0.26236153, 27.236153,         0,0.44394927
      11.6, 90.148605,0.70486703,0.26241262, 27.241262,         0, 0.4174112
     11.65,  90.43285,0.71249181,0.26246381, 27.246381,         0,0.39031207
      11.7, 90.717055,0.72018421,0.26251509, 27.251509,         0,0.36262662
     11.75, 91.001222,0.72794468,0.26256646, 27.256646,         0,0.33432831
      11.8, 91.285348,0.73577364,0.26261793, 27.261793,         0,0.30539219
     11.85, 91.569434,0.74367155,0.26266949, 27.266949,         0, 0.2758003
      11.9, 91.853478,0.75163884,0.26272113, 27.272113,         0,0.24555131
     11.95, 92.137481,0.75967595,0.26277288, 27.277288,         0,0.21467592
        12, 92.421441,0.76778334,0.26282471, 27.282471,         0,0.18325964
     12.05, 92.705359,0.77596143,0.26287663, 27.287663,         0,0.15150076
      12.1, 92.989232,0.78421066,0.26292864, 27.292864,         0,0.11964693
     12.15, 93.273061,0.79253149,0.26298074, 27.298074,         0,0.088110936
      12.2, 93.556844,0.80092436,0.26303294, 27.303294,         0,0.057465833
     12.25,  93.84058,0.80938967,0.26308521, 27.308521,         0, 0.0290609
      12.3, 94.124205,0.81792594,0.26313753, 27.313753,         0,0.0015943402
     12.35, 94.407501,0.82652698,0.26318975, 27.318975,         0,-0.049160622
      12.4, 94.690662,0.83519901,0.26324198, 27.324198,         0,-0.091795569
     12.45,  94.97377,0.84394492, 0.2632943,  27.32943,         0, -0.132488
      12.5, 95.256827,0.85276526,0.26334671, 27.334671,         0,-0.17479432
     12.55, 95.539831,0.86166047,0.26339919, 27.339919,         0,-0.21889573
