"time","h","der(h)","v","der(v)","g","e"
0,1,0,0,-9.81,9.81,0.7
0.01,1,-0.0981,-0.0981,-9.81,9.81,0.7
0.02,0.999019,-0.1962,-0.1962,-9.81,9.81,0.7
0.03,0.997057,-0.2943,-0.2943,-9.81,9.81,0.7
0.04,0.994114,-0.3924,-0.3924,-9.81,9.81,0.7
0.05,0.99019,-0.4905,-0.4905,-9.81,9.81,0.7
0.06,0.985285,-0.5886,-0.5886,-9.81,9.81,0.7
0.07,0.979399,-0.6867,-0.6867,-9.81,9.81,0.7
0.08,0.972532,-0.7848,-0.7848,-9.81,9.81,0.7
0.09,0.964684,-0.8829,-0.8829,-9.81,9.81,0.7
0.1,0.955855,-0.981,-0.981,-9.81,9.81,0.7
0.11,0.946045,-1.0791,-1.0791,-9.81,9.81,0.7
0.12,0.935254,-1.1772,-1.1772,-9.81,9.81,0.7
0.13,0.923482,-1.2753,-1.2753,-9.81,9.81,0.7
0.14,0.910729,-1.3734,-1.3734,-9.81,9.81,0.7
0.15,0.896995,-1.4715,-1.4715,-9.81,9.81,0.7
0.16,0.88228,-1.5696,-1.5696,-9.81,9.81,0.7
0.17,0.866584,-1.6677,-1.6677,-9.81,9.81,0.7
0.18,0.849907,-1.7658,-1.7658,-9.81,9.81,0.7
0.19,0.832249,-1.8639,-1.8639,-9.81,9.81,0.7
0.2,0.81361,-1.962,-1.962,-9.81,9.81,0.7
0.21,0.79399,-2.0601,-2.0601,-9.81,9.81,0.7
0.22,0.773389,-2.1582,-2.1582,-9.81,9.81,0.7
0.23,0.751807,-2.2563,-2.2563,-9.81,9.81,0.7
0.24,0.729244,-2.3544,-2.3544,-9.81,9.81,0.7
0.25,0.7057,-2.4525,-2.4525,-9.81,9.81,0.7
0.26,0.681175,-2.5506,-2.5506,-9.81,9.81,0.7
0.27,0.655669,-2.6487,-2.6487,-9.81,9.81,0.7
0.28,0.629182,-2.7468,-2.7468,-9.81,9.81,0.7
0.29,0.601714,-2.8449,-2.8449,-9.81,9.81,0.7
0.3,0.573265,-2.943,-2.943,-9.81,9.81,0.7
0.31,0.543835,-3.0411,-3.0411,-9.81,9.81,0.7
0.32,0.513424,-3.1392,-3.1392,-9.81,9.81,0.7
0.33,0.482032,-3.2373,-3.2373,-9.81,9.81,0.7
0.34,0.449659,-3.3354,-3.3354,-9.81,9.81,0.7
0.35,0.416305,-3.4335,-3.4335,-9.81,9.81,0.7
0.36,0.38197,-3.5316,-3.5316,-9.81,9.81,0.7
0.37,0.346654,-3.6297,-3.6297,-9.81,9.81,0.7
0.38,0.310357,-3.7278,-3.7278,-9.81,9.81,0.7
0.39,0.273079,-3.8259,-3.8259,-9.81,9.81,0.7
0.4,0.23482,-3.924,-3.924,-9.81,9.81,0.7
0.41,0.19558,-4.0221,-4.0221,-9.81,9.81,0.7
0.42,0.155359,-4.1202,-4.1202,-9.81,9.81,0.7
0.43,0.114157,-4.2183,-4.2183,-9.81,9.81,0.7
0.44,0.071974,-4.3164,-4.3164,-9.81,9.81,0.7
0.45,0.02881,-4.4145,-4.4145,-9.81,9.81,0.7
0.46,-0.015335,3.15882,3.15882,-9.81,9.81,0.7
0.47,0.0162532,3.06072,3.06072,-9.81,9.81,0.7
0.48,0.0468604,2.96262,2.96262,-9.81,9.81,0.7
0.49,0.0764866,2.86452,2.86452,-9.81,9.81,0.7
0.5,0.1051318,2.76642,2.76642,-9.81,9.81,0.7
0.51,0.132796,2.66832,2.66832,-9.81,9.81,0.7
0.52,0.1594792,2.57022,2.57022,-9.81,9.81,0.7
0.53,0.1851814,2.47212,2.47212,-9.81,9.81,0.7
0.54,0.2099026,2.37402,2.37402,-9.81,9.81,0.7
0.55,0.2336428,2.27592,2.27592,-9.81,9.81,0.7
0.56,0.256402,2.17782,2.17782,-9.81,9.81,0.7
0.57,0.2781802,2.07972,2.07972,-9.81,9.81,0.7
0.58,0.2989774,1.98162,1.98162,-9.81,9.81,0.7
0.59,0.3187936,1.88352,1.88352,-9.81,9.81,0.7
0.6,0.3376288,1.78542,1.78542,-9.81,9.81,0.7
0.61,0.355483,1.68732,1.68732,-9.81,9.81,0.7
0.62,0.3723562,1.58922,1.58922,-9.81,9.81,0.7
0.63,0.3882484,1.49112,1.49112,-9.81,9.81,0.7
0.64,0.4031596,1.39302,1.39302,-9.81,9.81,0.7
0.65,0.4170898,1.29492,1.29492,-9.81,9.81,0.7
0.66,0.430039,1.19682,1.19682,-9.81,9.81,0.7
0.67,0.4420072,1.09872,1.09872,-9.81,9.81,0.7
0.68,0.4529944,1.00062,1.00062,-9.81,9.81,0.7
0.69,0.4630006,0.90252,0.90252,-9.81,9.81,0.7
0.7,0.4720258,0.80442,0.80442,-9.81,9.81,0.7
0.71,0.48007,0.70632,0.70632,-9.81,9.81,0.7
0.72,0.4871332,0.60822,0.60822,-9.81,9.81,0.7
0.73,0.4932154,0.51012,0.51012,-9.81,9.81,0.7
0.74,0.4983166,0.41202,0.41202,-9.81,9.81,0.7
0.75,0.5024368,0.31392,0.31392,-9.81,9.81,0.7
0.76,0.505576,0.21582,0.21582,-9.81,9.81,0.7
0.77,0.5077342,0.11772,0.11772,-9.81,9.81,0.7
0.78,0.5089114,0.01962,0.01962,-9.81,9.81,0.7
0.79,0.5091076,-0.07848,-0.07848,-9.81,9.81,0.7
0.8,0.5083228,-0.17658,-0.17658,-9.81,9.81,0.7
0.81,0.506557,-0.27468,-0.27468,-9.81,9.81,0.7
0.82,0.5038102,-0.37278,-0.37278,-9.81,9.81,0.7
0.83,0.5000824,-0.47088,-0.47088,-9.81,9.81,0.7
0.84,0.4953736,-0.56898,-0.56898,-9.81,9.81,0.7
0.85,0.4896838,-0.66708,-0.66708,-9.81,9.81,0.7
0.86,0.483013,-0.76518,-0.76518,-9.81,9.81,0.7
0.87,0.4753612,-0.86328,-0.86328,-9.81,9.81,0.7
0.88,0.4667284,-0.96138,-0.96138,-9.81,9.81,0.7
0.89,0.4571146,-1.05948,-1.05948,-9.81,9.81,0.7
0.9,0.4465198,-1.15758,-1.15758,-9.81,9.81,0.7
0.91,0.434944,-1.25568,-1.25568,-9.81,9.81,0.7
0.92,0.4223872,-1.35378,-1.35378,-9.81,9.81,0.7
0.93,0.4088494,-1.45188,-1.45188,-9.81,9.81,0.7
0.94,0.3943306,-1.54998,-1.54998,-9.81,9.81,0.7
0.95,0.3788308,-1.64808,-1.64808,-9.81,9.81,0.7
0.96,0.36235,-1.74618,-1.74618,-9.81,9.81,0.7
0.97,0.3448882,-1.84428,-1.84428,-9.81,9.81,0.7
0.98,0.3264454,-1.94238,-1.94238,-9.81,9.81,0.7
0.99,0.3070216,-2.04048,-2.04048,-9.81,9.81,0.7
1,0.2866168,-2.13858,-2.13858,-9.81,9.81,0.7
1.01,0.265231,-2.23668,-2.23668,-9.81,9.81,0.7
1.02,0.2428642,-2.33478,-2.33478,-9.81,9.81,0.7
1.03,0.2195164,-2.43288,-2.43288,-9.81,9.81,0.7
1.04,0.1951876,-2.53098,-2.53098,-9.81,9.81,0.7
1.05,0.1698778,-2.62908,-2.62908,-9.81,9.81,0.7
1.06,0.143587,-2.72718,-2.72718,-9.81,9.81,0.7
1.07,0.1163152,-2.82528,-2.82528,-9.81,9.81,0.7
1.08,0.0880624,-2.92338,-2.92338,-9.81,9.81,0.7
1.09,0.0588286,-3.02148,-3.02148,-9.81,9.81,0.7
1.1,0.0286138,-3.11958,-3.11958,-9.81,9.81,0.7
1.11,-0.002582,2.252376,2.252376,-9.81,9.81,0.7
1.12,0.01994176,2.154276,2.154276,-9.81,9.81,0.7
1.13,0.04148452,2.056176,2.056176,-9.81,9.81,0.7
1.14,0.06204628,1.958076,1.958076,-9.81,9.81,0.7
1.15,0.08162704,1.859976,1.859976,-9.81,9.81,0.7
1.16,0.1002268,1.761876,1.761876,-9.81,9.81,0.7
1.17,0.11784556,1.663776,1.663776,-9.81,9.81,0.7
1.18,0.13448332,1.565676,1.565676,-9.81,9.81,0.7
1.19,0.15014008,1.467576,1.467576,-9.81,9.81,0.7
1.2,0.16481584,1.369476,1.369476,-9.81,9.81,0.7
1.21,0.1785106,1.271376,1.271376,-9.81,9.81,0.7
1.22,0.19122436,1.173276,1.173276,-9.81,9.81,0.7
1.23,0.20295712,1.075176,1.075176,-9.81,9.81,0.7
1.24,0.21370888,0.977076,0.977076,-9.81,9.81,0.7
1.25,0.22347964,0.878976,0.878976,-9.81,9.81,0.7
1.26,0.2322694,0.780876,0.780876,-9.81,9.81,0.7
1.27,0.24007816,0.682776,0.682776,-9.81,9.81,0.7
1.28,0.24690592,0.584676,0.584676,-9.81,9.81,0.7
1.29,0.25275268,0.486576,0.486576,-9.81,9.81,0.7
1.3,0.25761844,0.388476,0.388476,-9.81,9.81,0.7
1.31,0.2615032,0.290376,0.290376,-9.81,9.81,0.7
1.32,0.26440696,0.192276,0.192276,-9.81,9.81,0.7
1.33,0.26632972,0.094176,0.094176,-9.81,9.81,0.7
1.34,0.26727148,-0.003924,-0.003924,-9.81,9.81,0.7
1.35,0.26723224,-0.102024,-0.102024,-9.81,9.81,0.7
1.36,0.266212,-0.200124,-0.200124,-9.81,9.81,0.7
1.37,0.26421076,-0.298224,-0.298224,-9.81,9.81,0.7
1.38,0.26122852,-0.396324,-0.396324,-9.81,9.81,0.7
1.39,0.25726528,-0.494424,-0.494424,-9.81,9.81,0.7
1.4,0.25232104,-0.592524,-0.592524,-9.81,9.81,0.7
1.41,0.2463958,-0.690624,-0.690624,-9.81,9.81,0.7
1.42,0.23948956,-0.788724,-0.788724,-9.81,9.81,0.7
1.43,0.23160232,-0.886824,-0.886824,-9.81,9.81,0.7
1.44,0.22273408,-0.984924,-0.984924,-9.81,9.81,0.7
1.45,0.21288484,-1.083024,-1.083024,-9.81,9.81,0.7
1.46,0.2020546,-1.181124,-1.181124,-9.81,9.81,0.7
1.47,0.19024336,-1.279224,-1.279224,-9.81,9.81,0.7
1.48,0.17745112,-1.377324,-1.377324,-9.81,9.81,0.7
1.49,0.16367788,-1.475424,-1.475424,-9.81,9.81,0.7
1.5,0.14892364,-1.573524,-1.573524,-9.81,9.81,0.7
1.51,0.1331884,-1.671624,-1.671624,-9.81,9.81,0.7
1.52,0.11647216,-1.769724,-1.769724,-9.81,9.81,0.7
1.53,0.09877492,-1.867824,-1.867824,-9.81,9.81,0.7
1.54,0.08009668,-1.965924,-1.965924,-9.81,9.81,0.7
1.55,0.06043744,-2.064024,-2.064024,-9.81,9.81,0.7
1.56,0.0397972,-2.162124,-2.162124,-9.81,9.81,0.7
1.57,0.01817596,-2.260224,-2.260224,-9.81,9.81,0.7
1.58,-0.00442628,1.6508268,1.6508268,-9.81,9.81,0.7
1.59,0.012081988,1.5527268,1.5527268,-9.81,9.81,0.7
1.6,0.027609256,1.4546268,1.4546268,-9.81,9.81,0.7
1.61,0.042155524,1.3565268,1.3565268,-9.81,9.81,0.7
1.62,0.055720792,1.2584268,1.2584268,-9.81,9.81,0.7
1.63,0.06830506,1.1603268,1.1603268,-9.81,9.81,0.7
1.64,0.079908328,1.0622268,1.0622268,-9.81,9.81,0.7
1.65,0.090530596,0.9641268,0.9641268,-9.81,9.81,0.7
1.66,0.100171864,0.8660268,0.8660268,-9.81,9.81,0.7
1.67,0.108832132,0.7679268,0.7679268,-9.81,9.81,0.7
1.68,0.1165114,0.6698268,0.6698268,-9.81,9.81,0.7
1.69,0.123209668,0.5717268,0.5717268,-9.81,9.81,0.7
1.7,0.128926936,0.4736268,0.4736268,-9.81,9.81,0.7
1.71,0.133663204,0.3755268,0.3755268,-9.81,9.81,0.7
1.72,0.137418472,0.2774268,0.2774268,-9.81,9.81,0.7
1.73,0.14019274,0.1793268,0.1793268,-9.81,9.81,0.7
1.74,0.141986008,0.0812268,0.0812268,-9.81,9.81,0.7
1.75,0.142798276,-0.0168732,-0.0168732,-9.81,9.81,0.7
1.76,0.142629544,-0.1149732,-0.1149732,-9.81,9.81,0.7
1.77,0.141479812,-0.2130732,-0.2130732,-9.81,9.81,0.7
1.78,0.13934908,-0.3111732,-0.3111732,-9.81,9.81,0.7
1.79,0.136237348,-0.4092732,-0.4092732,-9.81,9.81,0.7
1.8,0.132144616,-0.5073732,-0.5073732,-9.81,9.81,0.7
1.81,0.127070884,-0.6054732,-0.6054732,-9.81,9.81,0.7
1.82,0.121016152,-0.7035732,-0.7035732,-9.81,9.81,0.7
1.83,0.11398042,-0.8016732,-0.8016732,-9.81,9.81,0.7
1.84,0.105963688,-0.8997732,-0.8997732,-9.81,9.81,0.7
1.85,0.096965956,-0.9978732,-0.9978732,-9.81,9.81,0.7
1.86,0.086987224,-1.0959732,-1.0959732,-9.81,9.81,0.7
1.87,0.076027492,-1.1940732,-1.1940732,-9.81,9.81,0.7
1.88,0.06408676,-1.2921732,-1.2921732,-9.81,9.81,0.7
1.89,0.051165028,-1.3902732,-1.3902732,-9.81,9.81,0.7
1.9,0.037262296,-1.4883732,-1.4883732,-9.81,9.81,0.7
1.91,0.022378564,-1.5864732,-1.5864732,-9.81,9.81,0.7
1.92,0.006513832,-1.6845732,-1.6845732,-9.81,9.81,0.7
1.93,-0.0103319,1.24787124,1.24787124,-9.81,9.81,0.7
1.94,0.0021468124,1.14977124,1.14977124,-9.81,9.81,0.7
1.95,0.0136445248,1.05167124,1.05167124,-9.81,9.81,0.7
1.96,0.0241612372,0.95357124,0.95357124,-9.81,9.81,0.7
1.97,0.0336969496,0.85547124,0.85547124,-9.81,9.81,0.7
1.98,0.042251662,0.75737124,0.75737124,-9.81,9.81,0.7
1.99,0.0498253744,0.65927124,0.65927124,-9.81,9.81,0.7
2,0.0564180868,0.56117124,0.56117124,-9.81,9.81,0.7
2.01,0.0620297992,0.46307124,0.46307124,-9.81,9.81,0.7
2.02,0.0666605116,0.36497124,0.36497124,-9.81,9.81,0.7
2.03,0.070310224,0.26687124,0.26687124,-9.81,9.81,0.7
2.04,0.0729789364,0.16877124,0.16877124,-9.81,9.81,0.7
2.05,0.0746666488,0.07067124,0.07067124,-9.81,9.81,0.7
2.06,0.0753733612,-0.02742876,-0.02742876,-9.81,9.81,0.7
2.07,0.0750990736,-0.12552876,-0.12552876,-9.81,9.81,0.7
2.08,0.073843786,-0.22362876,-0.22362876,-9.81,9.81,0.7
2.09,0.0716074984,-0.32172876,-0.32172876,-9.81,9.81,0.7
2.1,0.0683902108,-0.41982876,-0.41982876,-9.81,9.81,0.7
2.11,0.0641919232,-0.51792876,-0.51792876,-9.81,9.81,0.7
2.12,0.0590126356,-0.61602876,-0.61602876,-9.81,9.81,0.7
2.13,0.052852348,-0.71412876,-0.71412876,-9.81,9.81,0.7
2.14,0.0457110604,-0.81222876,-0.81222876,-9.81,9.81,0.7
2.15,0.0375887728,-0.91032876,-0.91032876,-9.81,9.81,0.7
2.16,0.0284854852,-1.00842876,-1.00842876,-9.81,9.81,0.7
2.17,0.0184011976,-1.10652876,-1.10652876,-9.81,9.81,0.7
2.18,0.00733591,-1.20462876,-1.20462876,-9.81,9.81,0.7
2.19,-0.0047103776,0.911910132,0.911910132,-9.81,9.81,0.7
2.2,0.00440872372,0.813810132,0.813810132,-9.81,9.81,0.7
2.21,0.01254682504,0.715710132,0.715710132,-9.81,9.81,0.7
2.22,0.01970392636,0.617610132,0.617610132,-9.81,9.81,0.7
2.23,0.02588002768,0.519510132,0.519510132,-9.81,9.81,0.7
2.24,0.031075129,0.421410132,0.421410132,-9.81,9.81,0.7
2.25,0.03528923032,0.323310132,0.323310132,-9.81,9.81,0.7
2.26,0.03852233164,0.225210132,0.225210132,-9.81,9.81,0.7
2.27,0.04077443296,0.127110132,0.127110132,-9.81,9.81,0.7
2.28,0.04204553428,0.029010132,0.029010132,-9.81,9.81,0.7
2.29,0.0423356356,-0.069089868,-0.069089868,-9.81,9.81,0.7
2.3,0.04164473692,-0.167189868,-0.167189868,-9.81,9.81,0.7
2.31,0.03997283824,-0.265289868,-0.265289868,-9.81,9.81,0.7
2.32,0.03731993956,-0.363389868,-0.363389868,-9.81,9.81,0.7
2.33,0.03368604088,-0.461489868,-0.461489868,-9.81,9.81,0.7
2.34,0.0290711422,-0.559589868,-0.559589868,-9.81,9.81,0.7
2.35,0.02347524352,-0.657689868,-0.657689868,-9.81,9.81,0.7
2.36,0.01689834484,-0.755789868,-0.755789868,-9.81,9.81,0.7
2.37,0.00934044616,-0.853889868,-0.853889868,-9.81,9.81,0.7
2.38,0.00080154748,-0.951989868,-0.951989868,-9.81,9.81,0.7
2.39,-0.0087183512,0.7350629076,0.7350629076,-9.81,9.81,0.7
2.4,-0.001367722124,0.6369629076,0.6369629076,-9.81,9.81,0.7
2.41,0.005001906952,0.5388629076,0.5388629076,-9.81,9.81,0.7
2.42,0.01039053603,0.4407629076,0.4407629076,-9.81,9.81,0.7
2.43,0.0147981651,0.3426629076,0.3426629076,-9.81,9.81,0.7
2.44,0.01822479418,0.2445629076,0.2445629076,-9.81,9.81,0.7
2.45,0.02067042326,0.1464629076,0.1464629076,-9.81,9.81,0.7
2.46,0.02213505233,0.0483629076,0.0483629076,-9.81,9.81,0.7
2.47,0.02261868141,-0.0497370924,-0.0497370924,-9.81,9.81,0.7
2.48,0.02212131048,-0.1478370924,-0.1478370924,-9.81,9.81,0.7
2.49,0.02064293956,-0.2459370924,-0.2459370924,-9.81,9.81,0.7
2.5,0.01818356864,-0.3440370924,-0.3440370924,-9.81,9.81,0.7
2.51,0.01474319771,-0.4421370924,-0.4421370924,-9.81,9.81,0.7
2.52,0.01032182679,-0.5402370924,-0.5402370924,-9.81,9.81,0.7
2.53,0.004919455864,-0.6383370924,-0.6383370924,-9.81,9.81,0.7
2.54,-0.00146391506,0.5155059647,0.5155059647,-9.81,9.81,0.7
2.55,0.003691144587,0.4174059647,0.4174059647,-9.81,9.81,0.7
2.56,0.007865204234,0.3193059647,0.3193059647,-9.81,9.81,0.7
2.57,0.01105826388,0.2212059647,0.2212059647,-9.81,9.81,0.7
2.58,0.01327032353,0.1231059647,0.1231059647,-9.81,9.81,0.7
2.59,0.01450138317,0.02500596468,0.02500596468,-9.81,9.81,0.7
2.6,0.01475144282,-0.07309403532,-0.07309403532,-9.81,9.81,0.7
2.61,0.01402050247,-0.1711940353,-0.1711940353,-9.81,9.81,0.7
2.62,0.01230856211,-0.2692940353,-0.2692940353,-9.81,9.81,0.7
2.63,0.009615621761,-0.3673940353,-0.3673940353,-9.81,9.81,0.7
2.64,0.005941681408,-0.4654940353,-0.4654940353,-9.81,9.81,0.7
2.65,0.001286741055,-0.5635940353,-0.5635940353,-9.81,9.81,0.7
2.66,-0.004349199298,0.4631858247,0.4631858247,-9.81,9.81,0.7
2.67,0.0002826589488,0.3650858247,0.3650858247,-9.81,9.81,0.7
2.68,0.003933517196,0.2669858247,0.2669858247,-9.81,9.81,0.7
2.69,0.006603375443,0.1688858247,0.1688858247,-9.81,9.81,0.7
2.7,0.008292233691,0.07078582472,0.07078582472,-9.81,9.81,0.7
2.71,0.009000091938,-0.02731417528,-0.02731417528,-9.81,9.81,0.7
2.72,0.008726950185,-0.1254141753,-0.1254141753,-9.81,9.81,0.7
2.73,0.007472808432,-0.2235141753,-0.2235141753,-9.81,9.81,0.7
2.74,0.00523766668,-0.3216141753,-0.3216141753,-9.81,9.81,0.7
2.75,0.002021524927,-0.4197141753,-0.4197141753,-9.81,9.81,0.7
2.76,-0.002175616826,0.3624699227,0.3624699227,-9.81,9.81,0.7
2.77,0.001449082401,0.2643699227,0.2643699227,-9.81,9.81,0.7
2.78,0.004092781628,0.1662699227,0.1662699227,-9.81,9.81,0.7
2.79,0.005755480855,0.06816992269,0.06816992269,-9.81,9.81,0.7
2.8,0.006437180082,-0.02993007731,-0.02993007731,-9.81,9.81,0.7
2.81,0.006137879309,-0.1280300773,-0.1280300773,-9.81,9.81,0.7
2.82,0.004857578536,-0.2261300773,-0.2261300773,-9.81,9.81,0.7
2.83,0.002596277763,-0.3242300773,-0.3242300773,-9.81,9.81,0.7
2.84,-0.0006460230105,0.2956310541,0.2956310541,-9.81,9.81,0.7
2.85,0.002310287531,0.1975310541,0.1975310541,-9.81,9.81,0.7
2.86,0.004285598072,0.09943105411,0.09943105411,-9.81,9.81,0.7
2.87,0.005279908613,0.001331054115,0.001331054115,-9.81,9.81,0.7
2.88,0.005293219154,-0.09676894589,-0.09676894589,-9.81,9.81,0.7
2.89,0.004325529695,-0.1948689459,-0.1948689459,-9.81,9.81,0.7
2.9,0.002376840236,-0.2929689459,-0.2929689459,-9.81,9.81,0.7
2.91,-0.0005528492225,0.2737482621,0.2737482621,-9.81,9.81,0.7
2.92,0.002184633399,0.1756482621,0.1756482621,-9.81,9.81,0.7
2.93,0.00394111602,0.07754826212,0.07754826212,-9.81,9.81,0.7
2.94,0.004716598641,-0.02055173788,-0.02055173788,-9.81,9.81,0.7
2.95,0.004511081262,-0.1186517379,-0.1186517379,-9.81,9.81,0.7
2.96,0.003324563883,-0.2167517379,-0.2167517379,-9.81,9.81,0.7
2.97,0.001157046505,-0.3148517379,-0.3148517379,-9.81,9.81,0.7
2.98,-0.001991470874,0.2890662165,0.2890662165,-9.81,9.81,0.7
2.99,0.000899191291,0.1909662165,0.1909662165,-9.81,9.81,0.7
3,0.002808853456,0.09286621652,0.09286621652,-9.81,9.81,0.7
3.01,0.003737515621,-0.005233783484,-0.005233783484,-9.81,9.81,0.7
3.02,0.003685177787,-0.1033337835,-0.1033337835,-9.81,9.81,0.7
3.03,0.002651839952,-0.2014337835,-0.2014337835,-9.81,9.81,0.7
3.04,0.0006375021168,-0.2995337835,-0.2995337835,-9.81,9.81,0.7
3.05,-0.002357835718,0.2783436484,0.2783436484,-9.81,9.81,0.7
3.06,0.0004256007664,0.1802436484,0.1802436484,-9.81,9.81,0.7
3.07,0.002228037251,0.08214364844,0.08214364844,-9.81,9.81,0.7
3.08,0.003049473735,-0.01595635156,-0.01595635156,-9.81,9.81,0.7
3.09,0.00288991022,-0.1140563516,-0.1140563516,-9.81,9.81,0.7
3.1,0.001749346704,-0.2121563516,-0.2121563516,-9.81,9.81,0.7
3.11,-0.0003722168117,0.2171794461,0.2171794461,-9.81,9.81,0.7
3.12,0.001799577649,0.1190794461,0.1190794461,-9.81,9.81,0.7
3.13,0.00299037211,0.02097944609,0.02097944609,-9.81,9.81,0.7
3.14,0.003200166571,-0.07712055391,-0.07712055391,-9.81,9.81,0.7
3.15,0.002428961032,-0.1752205539,-0.1752205539,-9.81,9.81,0.7
3.16,0.000676755493,-0.2733205539,-0.2733205539,-9.81,9.81,0.7
3.17,-0.002056450046,0.2599943877,0.2599943877,-9.81,9.81,0.7
3.18,0.0005434938312,0.1618943877,0.1618943877,-9.81,9.81,0.7
3.19,0.002162437709,0.06379438773,0.06379438773,-9.81,9.81,0.7
3.2,0.002800381586,-0.03430561227,-0.03430561227,-9.81,9.81,0.7
3.21,0.002457325463,-0.1324056123,-0.1324056123,-9.81,9.81,0.7
3.22,0.001133269341,-0.2305056123,-0.2305056123,-9.81,9.81,0.7
3.23,-0.001171786782,0.2300239286,0.2300239286,-9.81,9.81,0.7
3.24,0.001128452504,0.1319239286,0.1319239286,-9.81,9.81,0.7
3.25,0.00244769179,0.03382392859,0.03382392859,-9.81,9.81,0.7
3.26,0.002785931076,-0.06427607141,-0.06427607141,-9.81,9.81,0.7
3.27,0.002143170361,-0.1623760714,-0.1623760714,-9.81,9.81,0.7
3.28,0.0005194096473,-0.2604760714,-0.2604760714,-9.81,9.81,0.7
3.29,-0.002085351067,0.25100325,0.25100325,-9.81,9.81,0.7
3.3,0.000424681433,0.15290325,0.15290325,-9.81,9.81,0.7
3.31,0.001953713933,0.05480324999,0.05480324999,-9.81,9.81,0.7
3.32,0.002501746433,-0.04329675001,-0.04329675001,-9.81,9.81,0.7
3.33,0.002068778933,-0.14139675,-0.14139675,-9.81,9.81,0.7
3.34,0.0006548114326,-0.23949675,-0.23949675,-9.81,9.81,0.7
3.35,-0.001740156067,0.236317725,0.236317725,-9.81,9.81,0.7
3.36,0.0006230211826,0.138217725,0.138217725,-9.81,9.81,0.7
3.37,0.002005198433,0.04011772501,0.04011772501,-9.81,9.81,0.7
3.38,0.002406375683,-0.05798227499,-0.05798227499,-9.81,9.81,0.7
3.39,0.001826552933,-0.156082275,-0.156082275,-9.81,9.81,0.7
3.4,0.0002657301829,-0.254182275,-0.254182275,-9.81,9.81,0.7
3.41,-0.002276092567,0.2465975925,0.2465975925,-9.81,9.81,0.7
3.42,0.0001898833579,0.1484975925,0.1484975925,-9.81,9.81,0.7
3.43,0.001674859283,0.0503975925,0.0503975925,-9.81,9.81,0.7
3.44,0.002178835208,-0.0477024075,-0.0477024075,-9.81,9.81,0.7
3.45,0.001701811133,-0.1458024075,-0.1458024075,-9.81,9.81,0.7
3.46,0.0002437870577,-0.2439024075,-0.2439024075,-9.81,9.81,0.7
3.47,-0.002195237017,0.2394016853,0.2394016853,-9.81,9.81,0.7
3.48,0.0001987798352,0.1413016853,0.1413016853,-9.81,9.81,0.7
3.49,0.001611796688,0.04320168525,0.04320168525,-9.81,9.81,0.7
3.5,0.00204381354,-0.05489831475,-0.05489831475,-9.81,9.81,0.7
3.51,0.001494830393,-0.1529983147,-0.1529983147,-9.81,9.81,0.7
3.52,-3.515275467e-005,0.1757688203,0.1757688203,-9.81,9.81,0.7
3.53,0.001722535449,0.07766882032,0.07766882032,-9.81,9.81,0.7
3.54,0.002499223652,-0.02043117968,-0.02043117968,-9.81,9.81,0.7
3.55,0.002294911855,-0.1185311797,-0.1185311797,-9.81,9.81,0.7
3.56,0.001109600058,-0.2166311797,-0.2166311797,-9.81,9.81,0.7
3.57,-0.001056711739,0.2203118258,0.2203118258,-9.81,9.81,0.7
3.58,0.001146406519,0.1222118258,0.1222118258,-9.81,9.81,0.7
3.59,0.002368524777,0.02411182577,0.02411182577,-9.81,9.81,0.7
3.6,0.002609643035,-0.07398817423,-0.07398817423,-9.81,9.81,0.7
3.61,0.001869761292,-0.1720881742,-0.1720881742,-9.81,9.81,0.7
3.62,0.0001488795502,-0.2701881742,-0.2701881742,-9.81,9.81,0.7
