"time","h","der(h)","v","der(v)","g","e"
0,1,0,0,-9.8100000000000005,9.8100000000000005,0.69999999999999996
0.01,0.99955855000000005,-0.098100000000000007,-0.098100000000000007,-9.8100000000000005,9.8100000000000005,0.69999999999999996
0.02,0.99813610000000019,-0.1962000000000001,-0.1962000000000001,-9.8100000000000005,9.8100000000000005,0.69999999999999996
0.03,0.99573265000000044,-0.29430000000000012,-0.29430000000000012,-9.8100000000000005,9.8100000000000005,0.69999999999999996
0.04,0.99234820000000079,-0.39239999999999997,-0.39239999999999997,-9.8100000000000005,9.8100000000000005,0.69999999999999996
0.05,0.98798275000000124,-0.49049999999999983,-0.49049999999999983,-9.8100000000000005,9.8100000000000005,0.69999999999999996
0.06,0.98263630000000135,-0.58859999999999968,-0.58859999999999968,-9.8100000000000005,9.8100000000000005,0.69999999999999996
0.07,0.97630885000000089,-0.68669999999999953,-0.68669999999999953,-9.8100000000000005,9.8100000000000005,0.69999999999999996
0.08,0.96900040000000054,-0.78479999999999939,-0.78479999999999939,-9.8100000000000005,9.8100000000000005,0.69999999999999996
0.09,0.96071095000000029,-0.88289999999999924,-0.88289999999999924,-9.8100000000000005,9.8100000000000005,0.69999999999999996
0.1,0.95144050000000013,-0.98099999999999909,-0.98099999999999909,-9.8100000000000005,9.8100000000000005,0.69999999999999996
0.11,0.94118905000000008,-1.0790999999999999,-1.0790999999999999,-9.8100000000000005,9.8100000000000005,0.69999999999999996
0.12,0.92995660000000013,-1.1772000000000009,-1.1772000000000009,-9.8100000000000005,9.8100000000000005,0.69999999999999996
0.13,0.91774315000000029,-1.2753000000000019,-1.2753000000000019,-9.8100000000000005,9.8100000000000005,0.69999999999999996
0.14,0.90454870000000054,-1.3734000000000028,-1.3734000000000028,-9.8100000000000005,9.8100000000000005,0.69999999999999996
0.15,0.89037325000000089,-1.4715000000000038,-1.4715000000000038,-9.8100000000000005,9.8100000000000005,0.69999999999999996
0.16,0.87521680000000135,-1.5696000000000048,-1.5696000000000048,-9.8100000000000005,9.8100000000000005,0.69999999999999996
0.17,0.8590793500000008,-1.6677000000000057,-1.6677000000000057,-9.8100000000000005,9.8100000000000005,0.69999999999999996
0.18,0.84196090000000035,-1.7658000000000067,-1.7658000000000067,-9.8100000000000005,9.8100000000000005,0.69999999999999996
0.19,0.82386145,-1.8639000000000077,-1.8639000000000077,-9.8100000000000005,9.8100000000000005,0.69999999999999996
0.2,0.80478099999999975,-1.9620000000000086,-1.9620000000000086,-9.8100000000000005,9.8100000000000005,0.69999999999999996
0.21,0.7847195499999996,-2.0601000000000083,-2.0601000000000083,-9.8100000000000005,9.8100000000000005,0.69999999999999996
0.22,0.76367709999999955,-2.158200000000007,-2.158200000000007,-9.8100000000000005,9.8100000000000005,0.69999999999999996
0.23,0.74165364999999961,-2.2563000000000057,-2.2563000000000057,-9.8100000000000005,9.8100000000000005,0.69999999999999996
0.24,0.71864919999999977,-2.3544000000000045,-2.3544000000000045,-9.8100000000000005,9.8100000000000005,0.69999999999999996
0.25,0.69466375000000002,-2.4525000000000032,-2.4525000000000032,-9.8100000000000005,9.8100000000000005,0.69999999999999996
0.26,0.66969730000000038,-2.550600000000002,-2.550600000000002,-9.8100000000000005,9.8100000000000005,0.69999999999999996
0.27,0.64374985000000085,-2.6487000000000007,-2.6487000000000007,-9.8100000000000005,9.8100000000000005,0.69999999999999996
0.28,0.61682140000000074,-2.7467999999999995,-2.7467999999999995,-9.8100000000000005,9.8100000000000005,0.69999999999999996
0.29,0.58891195000000029,-2.8448999999999982,-2.8448999999999982,-9.8100000000000005,9.8100000000000005,0.69999999999999996
0.3,0.56002149999999995,-2.942999999999997,-2.942999999999997,-9.8100000000000005,9.8100000000000005,0.69999999999999996
0.31,0.53015004999999971,-3.0410999999999957,-3.0410999999999957,-9.8100000000000005,9.8100000000000005,0.69999999999999996
0.32,0.49929759999999956,-3.1391999999999944,-3.1391999999999944,-9.8100000000000005,9.8100000000000005,0.69999999999999996
0.33,0.46746414999999952,-3.2372999999999932,-3.2372999999999932,-9.8100000000000005,9.8100000000000005,0.69999999999999996
0.34,0.43464969999999958,-3.3353999999999919,-3.3353999999999919,-9.8100000000000005,9.8100000000000005,0.69999999999999996
0.35,0.40085424999999975,-3.4334999999999907,-3.4334999999999907,-9.8100000000000005,9.8100000000000005,0.69999999999999996
0.36,0.36607780000000001,-3.5315999999999894,-3.5315999999999894,-9.8100000000000005,9.8100000000000005,0.69999999999999996
0.37,0.33032035000000026,-3.6296999999999882,-3.6296999999999882,-9.8100000000000005,9.8100000000000005,0.69999999999999996
0.38,0.29358190000000017,-3.7277999999999869,-3.7277999999999869,-9.8100000000000005,9.8100000000000005,0.69999999999999996
0.39,0.25586245000000019,-3.8258999999999856,-3.8258999999999856,-9.8100000000000005,9.8100000000000005,0.69999999999999996
0.4,0.2171620000000003,-3.9239999999999844,-3.9239999999999844,-9.8100000000000005,9.8100000000000005,0.69999999999999996
0.41,0.17748055000000051,-4.0220999999999831,-4.0220999999999831,-9.8100000000000005,9.8100000000000005,0.69999999999999996
0.42,0.13681810000000069,-4.1201999999999819,-4.1201999999999819,-9.8100000000000005,9.8100000000000005,0.69999999999999996
0.43,0.095174650000000832,-4.2182999999999806,-4.2182999999999806,-9.8100000000000005,9.8100000000000005,0.69999999999999996
0.44,0.052550200000001053,-4.3163999999999794,-4.3163999999999794,-9.8100000000000005,9.8100000000000005,0.69999999999999996
0.45,0.0089447500000012573,-4.4144999999999781,-4.4144999999999781,-9.8100000000000005,9.8100000000000005,0.69999999999999996
0.46,0.017241067000001213,3.0420809999999849,3.0420809999999849,-9.8100000000000005,9.8100000000000005,0.69999999999999996
0.47,0.047220427000001078,2.9439809999999862,2.9439809999999862,-9.8100000000000005,9.8100000000000005,0.69999999999999996
0.48,0.076218787000000968,2.8458809999999874,2.8458809999999874,-9.8100000000000005,9.8100000000000005,0.69999999999999996
0.49,0.10423614700000082,2.7477809999999887,2.7477809999999887,-9.8100000000000005,9.8100000000000005,0.69999999999999996
0.5,0.13127250700000073,2.64968099999999,2.64968099999999,-9.8100000000000005,9.8100000000000005,0.69999999999999996
0.51,0.15732786700000065,2.5515809999999912,2.5515809999999912,-9.8100000000000005,9.8100000000000005,0.69999999999999996
0.52,0.18240222700000064,2.4534809999999925,2.4534809999999925,-9.8100000000000005,9.8100000000000005,0.69999999999999996
0.53,0.20649558700000048,2.3553809999999937,2.3553809999999937,-9.8100000000000005,9.8100000000000005,0.69999999999999996
0.54,0.22960794700000042,2.257280999999995,2.257280999999995,-9.8100000000000005,9.8100000000000005,0.69999999999999996
0.55,0.25173930700000047,2.1591809999999962,2.1591809999999962,-9.8100000000000005,9.8100000000000005,0.69999999999999996
0.56,0.27288966700000061,2.0610809999999975,2.0610809999999975,-9.8100000000000005,9.8100000000000005,0.69999999999999996
0.57,0.29305902700000069,1.9629809999999979,1.9629809999999979,-9.8100000000000005,9.8100000000000005,0.69999999999999996
0.58,0.31224738700000049,1.8648809999999969,1.8648809999999969,-9.8100000000000005,9.8100000000000005,0.69999999999999996
0.59,0.33045474700000038,1.7667809999999959,1.7667809999999959,-9.8100000000000005,9.8100000000000005,0.69999999999999996
0.6,0.34768110700000038,1.668680999999995,1.668680999999995,-9.8100000000000005,9.8100000000000005,0.69999999999999996
0.61,0.36392646700000048,1.570580999999994,1.570580999999994,-9.8100000000000005,9.8100000000000005,0.69999999999999996
0.62,0.37919082700000045,1.472480999999993,1.472480999999993,-9.8100000000000005,9.8100000000000005,0.69999999999999996
0.63,0.3934741870000002,1.3743809999999921,1.3743809999999921,-9.8100000000000005,9.8100000000000005,0.69999999999999996
0.64,0.40677654700000004,1.2762809999999911,1.2762809999999911,-9.8100000000000005,9.8100000000000005,0.69999999999999996
0.65,0.41909790699999999,1.1781809999999902,1.1781809999999902,-9.8100000000000005,9.8100000000000005,0.69999999999999996
0.66,0.43043826700000004,1.0800809999999892,1.0800809999999892,-9.8100000000000005,9.8100000000000005,0.69999999999999996
0.67,0.44079762699999997,0.98198099999998845,0.98198099999998845,-9.8100000000000005,9.8100000000000005,0.69999999999999996
0.68,0.45017598699999967,0.88388099999998859,0.88388099999998859,-9.8100000000000005,9.8100000000000005,0.69999999999999996
0.69,0.45857334699999946,0.78578099999998874,0.78578099999998874,-9.8100000000000005,9.8100000000000005,0.69999999999999996
0.7,0.46598970699999936,0.68768099999998888,0.68768099999998888,-9.8100000000000005,9.8100000000000005,0.69999999999999996
0.71,0.47242506699999937,0.58958099999998903,0.58958099999998903,-9.8100000000000005,9.8100000000000005,0.69999999999999996
0.72,0.47787942699999947,0.49148099999998918,0.49148099999998918,-9.8100000000000005,9.8100000000000005,0.69999999999999996
0.73,0.48235278699999923,0.39338099999998932,0.39338099999998932,-9.8100000000000005,9.8100000000000005,0.69999999999999996
0.74,0.48584514699999898,0.29528099999998947,0.29528099999998947,-9.8100000000000005,9.8100000000000005,0.69999999999999996
0.75,0.48835650699999883,0.19718099999998945,0.19718099999998945,-9.8100000000000005,9.8100000000000005,0.69999999999999996
0.76,0.48988686699999878,0.099080999999989358,0.099080999999989358,-9.8100000000000005,9.8100000000000005,0.69999999999999996
0.77,0.49043622699999884,0.00098099999998936191,0.00098099999998936191,-9.8100000000000005,9.8100000000000005,0.69999999999999996
0.78,0.49000458699999883,-0.097119000000010641,-0.097119000000010641,-9.8100000000000005,9.8100000000000005,0.69999999999999996
0.79,0.48859194699999853,-0.19521900000001075,-0.19521900000001075,-9.8100000000000005,9.8100000000000005,0.69999999999999996
0.8,0.48619830699999833,-0.29331900000001077,-0.29331900000001077,-9.8100000000000005,9.8100000000000005,0.69999999999999996
0.81,0.48282366699999824,-0.39141900000001062,-0.39141900000001062,-9.8100000000000005,9.8100000000000005,0.69999999999999996
0.82,0.47846802699999824,-0.48951900000001047,-0.48951900000001047,-9.8100000000000005,9.8100000000000005,0.69999999999999996
0.83,0.47313138699999835,-0.58761900000001033,-0.58761900000001033,-9.8100000000000005,9.8100000000000005,0.69999999999999996
0.84,0.46681374699999811,-0.68571900000001018,-0.68571900000001018,-9.8100000000000005,9.8100000000000005,0.69999999999999996
0.85,0.45951510699999787,-0.78381900000001004,-0.78381900000001004,-9.8100000000000005,9.8100000000000005,0.69999999999999996
0.86,0.45123546699999773,-0.88191900000000989,-0.88191900000000989,-9.8100000000000005,9.8100000000000005,0.69999999999999996
0.87,0.44197482699999768,-0.98001900000000974,-0.98001900000000974,-9.8100000000000005,9.8100000000000005,0.69999999999999996
0.88,0.43173318699999774,-1.0781190000000105,-1.0781190000000105,-9.8100000000000005,9.8100000000000005,0.69999999999999996
0.89,0.42051054699999768,-1.1762190000000114,-1.1762190000000114,-9.8100000000000005,9.8100000000000005,0.69999999999999996
0.9,0.40830690699999739,-1.2743190000000124,-1.2743190000000124,-9.8100000000000005,9.8100000000000005,0.69999999999999996
0.91,0.3951222669999972,-1.3724190000000134,-1.3724190000000134,-9.8100000000000005,9.8100000000000005,0.69999999999999996
0.92,0.38095662699999711,-1.4705190000000143,-1.4705190000000143,-9.8100000000000005,9.8100000000000005,0.69999999999999996
0.93,0.36580998699999712,-1.5686190000000153,-1.5686190000000153,-9.8100000000000005,9.8100000000000005,0.69999999999999996
0.94,0.34968234699999701,-1.6667190000000163,-1.6667190000000163,-9.8100000000000005,9.8100000000000005,0.69999999999999996
0.95,0.33257370699999667,-1.7648190000000172,-1.7648190000000172,-9.8100000000000005,9.8100000000000005,0.69999999999999996
0.96,0.31448406699999643,-1.8629190000000182,-1.8629190000000182,-9.8100000000000005,9.8100000000000005,0.69999999999999996
0.97,0.29541342699999629,-1.9610190000000192,-1.9610190000000192,-9.8100000000000005,9.8100000000000005,0.69999999999999996
0.98,0.27536178699999625,-2.0591190000000186,-2.0591190000000186,-9.8100000000000005,9.8100000000000005,0.69999999999999996
0.99,0.25432914699999626,-2.1572190000000173,-2.1572190000000173,-9.8100000000000005,9.8100000000000005,0.69999999999999996
1,0.23231550699999609,-2.2553190000000161,-2.2553190000000161,-9.8100000000000005,9.8100000000000005,0.69999999999999996
1.01,0.20932086699999591,-2.3534190000000148,-2.3534190000000148,-9.8100000000000005,9.8100000000000005,0.69999999999999996
1.02,0.18534522699999573,-2.4515190000000135,-2.4515190000000135,-9.8100000000000005,9.8100000000000005,0.69999999999999996
1.03,0.16038858699999564,-2.5496190000000123,-2.5496190000000123,-9.8100000000000005,9.8100000000000005,0.69999999999999996
1.04,0.13445094699999555,-2.647719000000011,-2.647719000000011,-9.8100000000000005,9.8100000000000005,0.69999999999999996
1.05,0.10753230699999539,-2.7458190000000098,-2.7458190000000098,-9.8100000000000005,9.8100000000000005,0.69999999999999996
1.06,0.079632666999995314,-2.8439190000000085,-2.8439190000000085,-9.8100000000000005,9.8100000000000005,0.69999999999999996
1.07,0.050752026999995217,-2.9420190000000073,-2.9420190000000073,-9.8100000000000005,9.8100000000000005,0.69999999999999996
1.08,0.02089038699999515,-3.040119000000006,-3.040119000000006,-9.8100000000000005,9.8100000000000005,0.69999999999999996
1.09,0.0059025708999951238,2.146722300000004,2.146722300000004,-9.8100000000000005,9.8100000000000005,0.69999999999999996
1.1,0.026928343899995169,2.0486223000000052,2.0486223000000052,-9.8100000000000005,9.8100000000000005,0.69999999999999996
1.11,0.046973116899995226,1.9505223000000051,1.9505223000000051,-9.8100000000000005,9.8100000000000005,0.69999999999999996
1.12,0.066036889899995274,1.8524223000000042,1.8524223000000042,-9.8100000000000005,9.8100000000000005,0.69999999999999996
1.13,0.084119662899995312,1.7543223000000032,1.7543223000000032,-9.8100000000000005,9.8100000000000005,0.69999999999999996
1.14,0.10122143589999535,1.6562223000000023,1.6562223000000023,-9.8100000000000005,9.8100000000000005,0.69999999999999996
1.15,0.11734220889999536,1.5581223000000013,1.5581223000000013,-9.8100000000000005,9.8100000000000005,0.69999999999999996
1.16,0.13248198189999535,1.4600223000000003,1.4600223000000003,-9.8100000000000005,9.8100000000000005,0.69999999999999996
1.17,0.14664075489999542,1.3619222999999994,1.3619222999999994,-9.8100000000000005,9.8100000000000005,0.69999999999999996
1.18,0.15981852789999534,1.2638222999999984,1.2638222999999984,-9.8100000000000005,9.8100000000000005,0.69999999999999996
1.19,0.17201530089999534,1.1657222999999974,1.1657222999999974,-9.8100000000000005,9.8100000000000005,0.69999999999999996
1.2,0.18323107389999532,1.0676222999999965,1.0676222999999965,-9.8100000000000005,9.8100000000000005,0.69999999999999996
1.21,0.19346584689999524,0.96952229999999595,0.96952229999999595,-9.8100000000000005,9.8100000000000005,0.69999999999999996
1.22,0.20271961989999526,0.8714222999999961,0.8714222999999961,-9.8100000000000005,9.8100000000000005,0.69999999999999996
1.23,0.21099239289999519,0.77332229999999624,0.77332229999999624,-9.8100000000000005,9.8100000000000005,0.69999999999999996
1.24,0.21828416589999514,0.67522229999999639,0.67522229999999639,-9.8100000000000005,9.8100000000000005,0.69999999999999996
1.25,0.22459493889999518,0.57712229999999654,0.57712229999999654,-9.8100000000000005,9.8100000000000005,0.69999999999999996
1.26,0.22992471189999508,0.47902229999999668,0.47902229999999668,-9.8100000000000005,9.8100000000000005,0.69999999999999996
1.27,0.23427348489999505,0.38092229999999683,0.38092229999999683,-9.8100000000000005,9.8100000000000005,0.69999999999999996
1.28,0.23764125789999507,0.28282229999999697,0.28282229999999697,-9.8100000000000005,9.8100000000000005,0.69999999999999996
1.29,0.24002803089999497,0.18472229999999693,0.18472229999999693,-9.8100000000000005,9.8100000000000005,0.69999999999999996
1.3,0.24143380389999497,0.086622299999996849,0.086622299999996849,-9.8100000000000005,9.8100000000000005,0.69999999999999996
1.31,0.24185857689999496,-0.011477700000003149,-0.011477700000003149,-9.8100000000000005,9.8100000000000005,0.69999999999999996
1.32,0.24130234989999488,-0.10957770000000315,-0.10957770000000315,-9.8100000000000005,9.8100000000000005,0.69999999999999996
1.33,0.23976512289999491,-0.20767770000000327,-0.20767770000000327,-9.8100000000000005,9.8100000000000005,0.69999999999999996
1.34,0.23724689589999484,-0.30577770000000326,-0.30577770000000326,-9.8100000000000005,9.8100000000000005,0.69999999999999996
1.35,0.23374766889999479,-0.40387770000000311,-0.40387770000000311,-9.8100000000000005,9.8100000000000005,0.69999999999999996
1.36,0.22926744189999484,-0.50197770000000297,-0.50197770000000297,-9.8100000000000005,9.8100000000000005,0.69999999999999996
1.37,0.22380621489999475,-0.60007770000000282,-0.60007770000000282,-9.8100000000000005,9.8100000000000005,0.69999999999999996
1.38,0.21736398789999473,-0.69817770000000268,-0.69817770000000268,-9.8100000000000005,9.8100000000000005,0.69999999999999996
1.39,0.20994076089999475,-0.79627770000000253,-0.79627770000000253,-9.8100000000000005,9.8100000000000005,0.69999999999999996
1.4,0.20153653389999465,-0.89437770000000238,-0.89437770000000238,-9.8100000000000005,9.8100000000000005,0.69999999999999996
1.41,0.19215130689999466,-0.99247770000000224,-0.99247770000000224,-9.8100000000000005,9.8100000000000005,0.69999999999999996
1.42,0.18178507989999465,-1.0905777000000032,-1.0905777000000032,-9.8100000000000005,9.8100000000000005,0.69999999999999996
1.43,0.17043785289999458,-1.1886777000000042,-1.1886777000000042,-9.8100000000000005,9.8100000000000005,0.69999999999999996
1.44,0.15810962589999461,-1.2867777000000051,-1.2867777000000051,-9.8100000000000005,9.8100000000000005,0.69999999999999996
1.45,0.14480039889999446,-1.3848777000000061,-1.3848777000000061,-9.8100000000000005,9.8100000000000005,0.69999999999999996
1.46,0.13051017189999442,-1.4829777000000071,-1.4829777000000071,-9.8100000000000005,9.8100000000000005,0.69999999999999996
1.47,0.11523894489999438,-1.581077700000008,-1.581077700000008,-9.8100000000000005,9.8100000000000005,0.69999999999999996
1.48,0.098986717899994289,-1.679177700000009,-1.679177700000009,-9.8100000000000005,9.8100000000000005,0.69999999999999996
1.49,0.081753490899994188,-1.77727770000001,-1.77727770000001,-9.8100000000000005,9.8100000000000005,0.69999999999999996
1.5,0.063539263899994092,-1.8753777000000109,-1.8753777000000109,-9.8100000000000005,9.8100000000000005,0.69999999999999996
1.51,0.044344036899993972,-1.9734777000000119,-1.9734777000000119,-9.8100000000000005,9.8100000000000005,0.69999999999999996
1.52,0.024167809899993849,-2.0715777000000113,-2.0715777000000113,-9.8100000000000005,9.8100000000000005,0.69999999999999996
1.53,0.0030105828999937427,-2.16967770000001,-2.16967770000001,-9.8100000000000005,9.8100000000000005,0.69999999999999996
1.54,0.010646804619993774,1.4540283900000059,1.4540283900000059,-9.8100000000000005,9.8100000000000005,0.69999999999999996
1.55,0.024745638519993833,1.355928390000005,1.355928390000005,-9.8100000000000005,9.8100000000000005,0.69999999999999996
1.56,0.037863472419993875,1.257828390000004,1.257828390000004,-9.8100000000000005,9.8100000000000005,0.69999999999999996
1.57,0.050000306319993908,1.1597283900000031,1.1597283900000031,-9.8100000000000005,9.8100000000000005,0.69999999999999996
1.58,0.061156140219993937,1.0616283900000021,1.0616283900000021,-9.8100000000000005,9.8100000000000005,0.69999999999999996
1.59,0.071330974119993965,0.96352839000000157,0.96352839000000157,-9.8100000000000005,9.8100000000000005,0.69999999999999996
