"time","tempc@tpf_st_chamber","press@tpf_st_chamber","out2@division","tau@tpf_st_chamber","dm2@tpf_pump","torque@expseu_"
0,19.904,0.02337,0.24,25,0.130321,0.554211
0.1,20.7494,0.0249046,0.240815,25.0815,0.125846,0.57222
0.2,21.5749,0.0264028,0.241612,25.1612,0.121478,0.589802
0.3,22.4003,0.027901,0.242408,25.2408,0.11711,0.607384
0.4,23.2258,0.0293992,0.243204,25.3204,0.112742,0.624966
0.5,24.0512,0.0308974,0.244,25.4,0.108374,0.642548
0.6,24.8767,0.0323956,0.244796,25.4796,0.104005,0.66013
0.7,25.7021,0.0338938,0.245592,25.5592,0.0996371,0.677712
0.8,26.5276,0.035392,0.246388,25.6388,0.0952688,0.695294
0.9,27.353,0.0368902,0.247184,25.7184,0.0909006,0.712876
1,28.1584,0.038352,0.247961,25.7961,0.0866385,0.730031
1.1,28.8413,0.0401635,0.248405,25.8405,0.0820077,0.745847
1.2,29.5241,0.0419751,0.248849,25.8849,0.077377,0.761662
1.3,30.207,0.0437866,0.249293,25.9293,0.0727462,0.777477
1.4,30.8899,0.0455982,0.249737,25.9737,0.0681155,0.793293
1.5,31.5727,0.0474097,0.250181,26.0181,0.0634847,0.809108
1.6,32.2556,0.0492213,0.250625,26.0625,0.058854,0.824923
1.7,32.9385,0.0510329,0.251069,26.1069,0.0542233,0.840739
1.8,33.6213,0.0528444,0.251513,26.1513,0.0495925,0.856554
1.9,34.3042,0.054656,0.251957,26.1957,0.0449618,0.872369
2,34.9871,0.0564675,0.252401,26.2401,0.040331,0.888185
2.1,35.5972,0.0586704,0.252632,26.2632,0.0379186,0.902391
2.2,36.2073,0.0608732,0.252862,26.2862,0.0355061,0.916597
2.3,36.8174,0.0630761,0.253093,26.3093,0.0330936,0.930803
2.4,37.4275,0.0652789,0.253323,26.3323,0.0306812,0.945009
2.5,38.0376,0.0674817,0.253554,26.3554,0.0282687,0.959215
2.6,38.6477,0.0696846,0.253785,26.3785,0.0258563,0.973422
2.7,39.2578,0.0718874,0.254015,26.4015,0.0234438,0.987628
2.8,39.8679,0.0740903,0.254246,26.4246,0.0210313,1.00183
2.9,40.478,0.0762931,0.254476,26.4476,0.0186189,1.01604
3,41.0881,0.078496,0.254707,26.4707,0.0162064,1.03025
3.1,41.6666,0.0812322,0.254828,26.4828,0.0149349,1.04294
3.2,42.2451,0.0839685,0.254949,26.4949,0.0136634,1.05564
3.3,42.8236,0.0867048,0.25507,26.507,0.0123919,1.06834
3.4,43.4021,0.089441,0.255192,26.5192,0.0111205,1.08103
3.5,43.9805,0.0921773,0.255313,26.5313,0.00984898,1.09373
3.6,44.559,0.0949136,0.255434,26.5434,0.0085775,1.10643
3.7,45.1375,0.0976498,0.255555,26.5555,0.00730602,1.11913
3.8,45.716,0.100386,0.255676,26.5676,0.00603453,1.13182
3.9,46.2945,0.103122,0.255797,26.5797,0.00476305,1.14452
4,46.873,0.105859,0.255918,26.5918,0.00349157,1.15722
4.1,47.4401,0.109299,0.25599,26.599,0.00314241,1.168
4.2,48.0072,0.112739,0.256062,26.6062,0.00279326,1.17879
4.3,48.5744,0.11618,0.256134,26.6134,0.0024441,1.18958
4.4,49.1415,0.11962,0.256206,26.6206,0.00209494,1.20036
4.5,49.7087,0.123061,0.256278,26.6278,0.00174578,1.21115
4.6,50.2758,0.126501,0.256349,26.6349,0.00139663,1.22194
4.7,50.8429,0.129941,0.256421,26.6421,0.00104747,1.23272
4.8,51.4101,0.133382,0.256493,26.6493,0.000698314,1.24351
4.9,51.9772,0.136822,0.256565,26.6565,0.000349157,1.25429
5,52.5443,0.140263,0.256637,26.6637,3.72966E-17,1.26508
5.1,53.1125,0.144627,0.25671,26.671,0,1.27313
5.2,53.6807,0.148991,0.256783,26.6783,0,1.28118
5.3,54.2489,0.153355,0.256856,26.6856,0,1.28923
5.4,54.8171,0.157719,0.25693,26.693,0,1.29728
5.5,55.3853,0.162084,0.257003,26.7003,0,1.30533
5.6,55.9535,0.166448,0.257076,26.7076,0,1.31337
5.7,56.5216,0.170812,0.257149,26.7149,0,1.32142
5.8,57.0898,0.175176,0.257222,26.7222,0,1.32947
5.9,57.658,0.179541,0.257295,26.7296,0,1.33752
6,58.2262,0.183905,0.257369,26.7369,0,1.34557
6.1,58.7959,0.189393,0.257448,26.7448,0,1.34941
6.2,59.3655,0.194881,0.257526,26.7526,0,1.35325
6.3,59.9352,0.200369,0.257605,26.7605,0,1.35709
6.4,60.5049,0.205857,0.257684,26.7684,0,1.36093
6.5,61.0745,0.211345,0.257763,26.7763,0,1.36477
6.6,61.6442,0.216833,0.257842,26.7842,0,1.36861
6.7,62.2138,0.222321,0.257921,26.7921,0,1.37245
6.8,62.7835,0.227809,0.257999,26.7999,0,1.37629
6.9,63.3532,0.233296,0.258078,26.8078,0,1.38013
7,63.9228,0.238784,0.258157,26.8157,0,1.38397
7.1,64.4934,0.245616,0.258241,26.8241,0,1.38178
7.2,65.0639,0.252448,0.258325,26.8325,0,1.3796
7.3,65.6345,0.25928,0.258409,26.8409,0,1.37741
7.4,66.205,0.266112,0.258494,26.8494,0,1.37523
7.5,66.7756,0.272944,0.258578,26.8578,0,1.37304
7.6,67.3461,0.279776,0.258662,26.8662,0,1.37086
7.7,67.9167,0.286608,0.258746,26.8746,0,1.36867
7.8,68.4872,0.29344,0.25883,26.883,0,1.36649
7.9,69.0578,0.300272,0.258914,26.8914,0,1.3643
8,69.6283,0.307103,0.258998,26.8998,0,1.36211
8.1,70.1992,0.315526,0.259087,26.9087,0,1.35176
8.2,70.77,0.323948,0.259176,26.9177,0,1.3414
8.3,71.3409,0.33237,0.259266,26.9266,0,1.33105
8.4,71.9117,0.340792,0.259355,26.9355,0,1.32069
8.5,72.4826,0.349214,0.259444,26.9444,0,1.31033
8.6,73.0534,0.357636,0.259533,26.9533,0,1.29998
8.7,73.6242,0.366058,0.259622,26.9622,0,1.28962
8.8,74.1951,0.37448,0.259711,26.9711,0,1.27927
8.9,74.7659,0.382903,0.2598,26.98,0,1.26891
9,75.3368,0.391325,0.259889,26.9889,0,1.25855
9.1,75.9074,0.40161,0.259983,26.9983,0,1.23754
9.2,76.478,0.411895,0.260076,27.0076,0,1.21653
9.3,77.0486,0.422181,0.26017,27.017,0,1.19552
9.4,77.6192,0.432466,0.260264,27.0264,0,1.17451
9.5,78.1898,0.442751,0.260357,27.0357,0,1.15349
9.6,78.7605,0.453036,0.260451,27.0451,0,1.13248
9.7,79.3311,0.463322,0.260545,27.0545,0,1.11147
9.8,79.9017,0.473607,0.260638,27.0638,0,1.09046
9.9,80.4723,0.483892,0.260732,27.0732,0,1.06944
10,81.0429,0.494178,0.260826,27.0826,0,1.04843
10.1,81.6128,0.506625,0.260924,27.0924,0,1.01393
10.2,82.1826,0.519072,0.261021,27.1021,0,0.979429
10.3,82.7525,0.531519,0.261119,27.1119,0,0.944927
10.4,83.3224,0.543966,0.261217,27.1217,0,0.910425
10.5,83.8922,0.556413,0.261315,27.1315,0,0.875924
10.6,84.4621,0.56886,0.261413,27.1413,0,0.841422
10.7,85.032,0.581307,0.261511,27.1511,0,0.80692
10.8,85.6018,0.593754,0.261609,27.1609,0,0.772419
10.9,86.1717,0.606201,0.261707,27.1707,0,0.737917
11,86.7416,0.618648,0.261805,27.1805,0,0.703415
11.1,87.3102,0.63358,0.261907,27.1907,0,0.651602
11.2,87.8788,0.648512,0.262009,27.2009,0,0.599788
11.3,88.4474,0.663443,0.26211,27.211,0,0.547974
11.4,89.0161,0.678375,0.262212,27.2212,0,0.49616
11.5,89.5847,0.693306,0.262314,27.2314,0,0.444346
11.6,90.1533,0.708238,0.262416,27.2416,0,0.392532
11.7,90.7219,0.72317,0.262518,27.2518,0,0.340719
11.8,91.2905,0.738101,0.26262,27.262,0,0.288905
11.9,91.8591,0.753033,0.262722,27.2722,0,0.237091
12,92.4278,0.767965,0.262823,27.2823,0,0.185277
12.1,92.994,0.785703,0.262928,27.2928,0,0.100899
12.2,93.5602,0.803442,0.263033,27.3033,0,0.0165202
12.3,94.1264,0.82118,0.263138,27.3138,0,-0.0678584
12.4,94.6926,0.838919,0.263243,27.3243,0,-0.152237
12.5,95.2588,0.856657,0.263348,27.3348,0,-0.236615
12.6,95.8251,0.874395,0.263453,27.3453,0,-0.320994
12.7,96.3913,0.892134,0.263558,27.3558,0,-0.405372
12.8,96.9575,0.909872,0.263663,27.3663,0,-0.489751
12.9,97.5237,0.927611,0.263768,27.3768,0,-0.574129
13,98.0899,0.945349,0.263873,27.3873,0,-0.658508
13.1,98.6536,0.96626,0.263981,27.3981,0,-0.778841
13.2,99.2173,0.987171,0.264089,27.4089,0,-0.899174
13.3,99.7809,1.00808,0.264197,27.4197,0,-1.01951
13.4,100.345,1.02899,0.264305,27.4305,0,-1.13984
13.5,100.908,1.0499,0.264413,27.4413,0,-1.26017
13.6,101.472,1.07081,0.264521,27.4521,0,-1.3805
13.7,102.036,1.09172,0.264629,27.4629,0,-1.50084
13.8,102.599,1.11264,0.264737,27.4737,0,-1.62117
13.9,103.163,1.13355,0.264845,27.4845,0,-1.7415
14,103.727,1.15446,0.264953,27.4953,0,-1.86184
14.1,104.288,1.17892,0.265064,27.5064,0,-2.0181
14.2,104.848,1.20339,0.265175,27.5175,0,-2.17437
14.3,105.409,1.22786,0.265286,27.5286,0,-2.33064
14.4,105.97,1.25233,0.265397,27.5397,0,-2.48691
14.5,106.531,1.27679,0.265508,27.5508,0,-2.64318
14.6,107.092,1.30126,0.265618,27.5618,0,-2.79945
14.7,107.653,1.32573,0.265729,27.5729,0,-2.95572
14.8,108.214,1.35019,0.26584,27.584,0,-3.11198
14.9,108.775,1.37466,0.265951,27.5951,0,-3.26825
15,109.336,1.39913,0.266062,27.6062,0,-3.42452
15.1,109.893,1.42753,0.266175,27.6175,0,-3.62641
15.2,110.451,1.45594,0.266288,27.6288,0,-3.8283
15.3,111.009,1.48435,0.266402,27.6402,0,-4.03019
15.4,111.566,1.51276,0.266515,27.6515,0,-4.23208
15.5,112.124,1.54116,0.266628,27.6628,0,-4.43397
15.6,112.681,1.56957,0.266742,27.6742,0,-4.63586
15.7,113.239,1.59798,0.266855,27.6855,0,-4.83775
15.8,113.797,1.62638,0.266968,27.6968,0,-5.03964
15.9,114.354,1.65479,0.267081,27.7081,0,-5.24153
16,114.912,1.6832,0.267195,27.7195,0,-5.44342
16.1,115.466,1.71593,0.26731,27.731,0,-5.6992
16.2,116.019,1.74865,0.267425,27.7425,0,-5.95497
16.3,116.573,1.78138,0.26754,27.754,0,-6.21075
16.4,117.127,1.81411,0.267655,27.7656,0,-6.46653
16.5,117.68,1.84684,0.267771,27.7771,0,-6.7223
16.6,118.234,1.87957,0.267886,27.7886,0,-6.97808
16.7,118.788,1.9123,0.268001,27.8001,0,-7.23386
16.8,119.341,1.94503,0.268116,27.8116,0,-7.48963
16.9,119.895,1.97775,0.268232,27.8232,0,-7.74541
17,120.449,2.01048,0.268347,27.8347,0,-8.00119
17.1,120.998,2.0479,0.268463,27.8463,0,-8.31958
17.2,121.547,2.08532,0.26858,27.858,0,-8.63797
17.3,122.096,2.12273,0.268696,27.8696,0,-8.95636
17.4,122.645,2.16015,0.268813,27.8813,0,-9.27475
17.5,123.194,2.19756,0.268929,27.8929,0,-9.59315
17.6,123.743,2.23498,0.269046,27.9046,0,-9.91154
17.7,124.292,2.2724,0.269162,27.9162,0,-10.2299
17.8,124.841,2.30981,0.269279,27.9279,0,-10.5483
17.9,125.39,2.34723,0.269396,27.9396,0,-10.8667
18,125.939,2.38465,0.269512,27.9512,0,-11.1851
18.1,126.482,2.42708,0.269629,27.9629,0,-11.5757
18.2,127.026,2.46952,0.269746,27.9746,0,-11.9662
18.3,127.569,2.51195,0.269863,27.9863,0,-12.3568
18.4,128.113,2.55439,0.26998,27.998,0,-12.7473
18.5,128.656,2.59682,0.270097,28.0097,0,-13.1379
18.6,129.199,2.63926,0.270214,28.0214,0,-13.5285
18.7,129.743,2.68169,0.270331,28.0331,0,-13.919
18.8,130.286,2.72412,0.270448,28.0448,0,-14.3096
18.9,130.829,2.76656,0.270565,28.0565,0,-14.7001
19,131.373,2.80899,0.270682,28.0682,0,-15.0907
19.1,131.909,2.85667,0.270798,28.0798,0,-15.5626
19.2,132.445,2.90434,0.270914,28.0914,0,-16.0346
19.3,132.981,2.95202,0.271031,28.1031,0,-16.5065
19.4,133.517,2.99969,0.271147,28.1147,0,-16.9785
19.5,134.053,3.04737,0.271263,28.1263,0,-17.4504
19.6,134.589,3.09504,0.271379,28.1379,0,-17.9224
19.7,135.125,3.14272,0.271496,28.1496,0,-18.3943
19.8,135.661,3.19039,0.271612,28.1612,0,-18.8663
19.9,136.197,3.23807,0.271728,28.1728,0,-19.3382
20,136.733,3.28574,0.271844,28.1844,0,-19.8102
20.1,137.251,3.33777,0.271956,28.1956,0,-20.3621
20.2,137.768,3.3898,0.272068,28.2068,0,-20.914
20.3,138.286,3.44183,0.272179,28.2179,0,-21.4659
20.4,138.803,3.49387,0.272291,28.2291,0,-22.0178
20.5,139.32,3.5459,0.272403,28.2403,0,-22.5697
20.6,139.838,3.59793,0.272514,28.2514,0,-23.1216
20.7,140.355,3.64996,0.272626,28.2626,0,-23.6735
20.8,140.873,3.70199,0.272738,28.2738,0,-24.2254
20.9,141.39,3.75402,0.27285,28.285,0,-24.7773
21,141.908,3.80605,0.272961,28.2961,0,-25.3292
21.1,142.395,3.861,0.273064,28.3064,0,-25.9498
21.2,142.883,3.91595,0.273167,28.3167,0,-26.5703
21.3,143.371,3.9709,0.27327,28.327,0,-27.1908
21.4,143.859,4.02585,0.273373,28.3373,0,-27.8114
21.5,144.347,4.0808,0.273476,28.3476,0,-28.4319
21.6,144.834,4.13575,0.273579,28.3579,0,-29.0524
21.7,145.322,4.1907,0.273682,28.3682,0,-29.6729
21.8,145.81,4.24565,0.273785,28.3785,0,-30.2935
21.9,146.298,4.30061,0.273888,28.3888,0,-30.914
22,146.786,4.35556,0.273991,28.3991,0,-31.5345
22.1,147.232,4.4113,0.27408,28.408,0,-32.1993
22.2,147.679,4.46705,0.27417,28.417,0,-32.8641
22.3,148.126,4.5228,0.274259,28.4259,0,-33.5288
22.4,148.572,4.57855,0.274349,28.4349,0,-34.1936
22.5,149.019,4.63429,0.274438,28.4438,0,-34.8583
22.6,149.466,4.69004,0.274527,28.4527,0,-35.5231
22.7,149.913,4.74579,0.274617,28.4617,0,-36.1878
22.8,150.359,4.80153,0.274706,28.4706,0,-36.8526
22.9,150.806,4.85728,0.274796,28.4796,0,-37.5174
23,151.253,4.91303,0.274885,28.4885,0,-38.1821
23.1,151.647,4.96688,0.274956,28.4956,0,-38.855
23.2,152.041,5.02073,0.275027,28.5027,0,-39.5279
23.3,152.436,5.07458,0.275097,28.5097,0,-40.2008
23.4,152.83,5.12842,0.275168,28.5168,0,-40.8737
23.5,153.225,5.18227,0.275239,28.5239,0,-41.5465
23.6,153.619,5.23612,0.27531,28.531,0,-42.2194
23.7,154.013,5.28997,0.27538,28.538,0,-42.8923
23.8,154.408,5.34382,0.275451,28.5451,0,-43.5652
23.9,154.802,5.39767,0.275522,28.5522,0,-44.2381
24,155.197,5.45152,0.275593,28.5593,0,-44.911
24.1,155.529,5.50048,0.27564,28.564,0,-45.5493
24.2,155.861,5.54944,0.275687,28.5687,0,-46.1877
24.3,156.194,5.59841,0.275734,28.5734,0,-46.826
24.4,156.526,5.64737,0.275782,28.5782,0,-47.4644
24.5,156.859,5.69634,0.275829,28.5829,0,-48.1027
24.6,157.191,5.7453,0.275876,28.5876,0,-48.7411
24.7,157.524,5.79426,0.275923,28.5923,0,-49.3795
24.8,157.856,5.84323,0.275971,28.5971,0,-50.0178
24.9,158.189,5.89219,0.276018,28.6018,0,-50.6562
25,158.521,5.94116,0.276065,28.6065,0,-51.2945
25.1,158.784,5.98237,0.276085,28.6085,0,-51.8559
25.2,159.048,6.02359,0.276104,28.6104,0,-52.4172
25.3,159.311,6.0648,0.276124,28.6124,0,-52.9786
25.4,159.574,6.10602,0.276144,28.6144,0,-53.5399
25.5,159.837,6.14723,0.276163,28.6163,0,-54.1013
25.6,160.101,6.18845,0.276183,28.6183,0,-54.6626
25.7,160.364,6.22967,0.276203,28.6203,0,-55.224
25.8,160.627,6.27088,0.276222,28.6222,0,-55.7853
25.9,160.89,6.3121,0.276242,28.6242,0,-56.3467
26,161.154,6.35331,0.276261,28.6261,0,-56.908
26.1,161.344,6.38449,0.276251,28.6251,0,-57.3564
26.2,161.534,6.41566,0.27624,28.624,0,-57.8048
26.3,161.724,6.44683,0.276229,28.6229,0,-58.2532
26.4,161.915,6.47801,0.276219,28.6219,0,-58.7016
26.5,162.105,6.50918,0.276208,28.6208,0,-59.1501
26.6,162.295,6.54035,0.276197,28.6197,0,-59.5985
26.7,162.485,6.57153,0.276187,28.6187,0,-60.0469
26.8,162.676,6.6027,0.276176,28.6176,0,-60.4953
26.9,162.866,6.63387,0.276165,28.6165,0,-60.9437
27,163.056,6.66505,0.276155,28.6155,0,-61.3921
27.1,163.173,6.68481,0.276113,28.6113,0,-61.7035
27.2,163.29,6.70457,0.276071,28.6071,0,-62.0149
27.3,163.407,6.72433,0.276029,28.6029,0,-62.3264
27.4,163.524,6.74409,0.275987,28.5987,0,-62.6378
27.5,163.641,6.76385,0.275945,28.5945,0,-62.9492
27.6,163.758,6.78361,0.275903,28.5903,0,-63.2607
27.7,163.875,6.80337,0.275861,28.5861,0,-63.5721
27.8,163.992,6.82313,0.27582,28.582,0,-63.8835
27.9,164.109,6.8429,0.275778,28.5778,0,-64.1949
28,164.225,6.86266,0.275736,28.5736,0,-64.5064
28.1,164.273,6.87073,0.275664,28.5664,0,-64.672
28.2,164.32,6.87881,0.275592,28.5592,0,-64.8376
28.3,164.367,6.88689,0.27552,28.552,0,-65.0032
28.4,164.414,6.89496,0.275447,28.5447,0,-65.1687
28.5,164.461,6.90304,0.275375,28.5375,0,-65.3344
28.6,164.508,6.91112,0.275303,28.5303,0,-65.4999
28.7,164.555,6.91919,0.275231,28.5231,0,-65.6655
28.8,164.602,6.92727,0.275159,28.5159,0,-65.8311
28.9,164.649,6.93535,0.275087,28.5087,0,-65.9967
29,164.696,6.94342,0.275015,28.5015,0,-66.1623
29.1,164.679,6.94058,0.274915,28.4915,0,-66.1884
29.2,164.663,6.93773,0.274816,28.4816,0,-66.2145
29.3,164.646,6.93489,0.274716,28.4716,0,-66.2406
29.4,164.63,6.93205,0.274617,28.4617,0,-66.2667
29.5,164.613,6.9292,0.274517,28.4517,0,-66.2928
29.6,164.597,6.92636,0.274418,28.4418,0,-66.3189
29.7,164.58,6.92351,0.274318,28.4318,0,-66.345
29.8,164.564,6.92067,0.274219,28.4219,0,-66.3711
29.9,164.547,6.91782,0.274119,28.4119,0,-66.3972
30,164.531,6.91498,0.27402,28.402,0,-66.4233
30.1,164.459,6.90275,0.273897,28.3897,0,-66.328
30.2,164.387,6.89053,0.273774,28.3774,0,-66.2326
30.3,164.316,6.8783,0.273651,28.3651,0,-66.1373
30.4,164.244,6.86608,0.273528,28.3528,0,-66.0419
30.5,164.173,6.85385,0.273406,28.3406,0,-65.9466
30.6,164.101,6.84163,0.273283,28.3283,0,-65.8513
30.7,164.029,6.8294,0.27316,28.316,0,-65.7559
30.8,163.958,6.81718,0.273037,28.3037,0,-65.6606
30.9,163.886,6.80495,0.272914,28.2914,0,-65.5652
31,163.815,6.79273,0.272791,28.2791,0,-65.4699
31.1,163.698,6.7731,0.27265,28.265,0,-65.278
31.2,163.58,6.75347,0.272509,28.2509,0,-65.0862
31.3,163.463,6.73384,0.272367,28.2367,0,-64.8943
31.4,163.346,6.71421,0.272226,28.2226,0,-64.7024
31.5,163.229,6.69458,0.272084,28.2084,0,-64.5106
31.6,163.112,6.67495,0.271943,28.1943,0,-64.3187
31.7,162.995,6.65532,0.271802,28.1802,0,-64.1269
31.8,162.878,6.6357,0.27166,28.166,0,-63.935
31.9,162.761,6.61607,0.271519,28.1519,0,-63.7431
32,162.643,6.59644,0.271378,28.1378,0,-63.5513
32.1,162.49,6.57148,0.271223,28.1223,0,-63.2913
32.2,162.337,6.54651,0.271068,28.1068,0,-63.0314
32.3,162.184,6.52155,0.270913,28.0913,0,-62.7714
32.4,162.031,6.49659,0.270758,28.0758,0,-62.5115
32.5,161.878,6.47162,0.270603,28.0603,0,-62.2515
32.6,161.725,6.44666,0.270448,28.0448,0,-61.9916
32.7,161.572,6.4217,0.270293,28.0293,0,-61.7316
32.8,161.419,6.39674,0.270138,28.0138,0,-61.4716
32.9,161.266,6.37177,0.269983,27.9983,0,-61.2117
33,161.113,6.34681,0.269828,27.9828,0,-60.9517
33.1,160.933,6.31843,0.269664,27.9664,0,-60.6488
33.2,160.753,6.29005,0.2695,27.95,0,-60.3459
33.3,160.573,6.26166,0.269336,27.9336,0,-60.0429
33.4,160.394,6.23328,0.269172,27.9172,0,-59.74
33.5,160.214,6.2049,0.269008,27.9009,0,-59.4371
33.6,160.034,6.17651,0.268845,27.8845,0,-59.1341
33.7,159.854,6.14813,0.268681,27.8681,0,-58.8312
33.8,159.674,6.11975,0.268517,27.8517,0,-58.5282
33.9,159.494,6.09137,0.268353,27.8353,0,-58.2253
34,159.314,6.06298,0.268189,27.8189,0,-57.9224
34.1,159.132,6.03539,0.268025,27.8025,0,-57.6298
34.2,158.951,6.00779,0.26786,27.786,0,-57.3372
34.3,158.769,5.9802,0.267696,27.7696,0,-57.0446
34.4,158.588,5.9526,0.267531,27.7531,0,-56.752
34.5,158.406,5.92501,0.267367,27.7367,0,-56.4594
34.6,158.225,5.89741,0.267203,27.7203,0,-56.1669
34.7,158.043,5.86982,0.267038,27.7038,0,-55.8743
34.8,157.862,5.84222,0.266874,27.6874,0,-55.5817
34.9,157.68,5.81463,0.266709,27.6709,0,-55.2891
35,157.499,5.78703,0.266545,27.6545,0,-54.9965
35.1,157.433,5.7772,0.266411,27.6411,0,-54.9254
35.2,157.366,5.76737,0.266277,27.6277,0,-54.8542
35.3,157.3,5.75753,0.266143,27.6143,0,-54.7831
35.4,157.234,5.7477,0.266009,27.6009,0,-54.7119
35.5,157.167,5.73787,0.265875,27.5875,0,-54.6408
35.6,157.101,5.72804,0.265741,27.5741,0,-54.5696
35.7,157.035,5.7182,0.265607,27.5607,0,-54.4985
35.8,156.968,5.70837,0.265473,27.5473,0,-54.4273
35.9,156.902,5.69854,0.265339,27.5339,0,-54.3562
36,156.836,5.68871,0.265205,27.5205,0,-54.285
36.1,156.944,5.70478,0.265116,27.5116,0,-54.5372
36.2,157.052,5.72086,0.265026,27.5026,0,-54.7894
36.3,157.16,5.73694,0.264937,27.4937,0,-55.0416
36.4,157.268,5.75302,0.264848,27.4848,0,-55.2937
36.5,157.376,5.7691,0.264758,27.4758,0,-55.5459
36.6,157.484,5.78518,0.264669,27.4669,0,-55.7981
36.7,157.592,5.80126,0.26458,27.4579,0,-56.0503
36.8,157.7,5.81734,0.26449,27.449,0,-56.3024
36.9,157.808,5.83342,0.264401,27.4401,0,-56.5546
37,157.916,5.8495,0.264311,27.4311,0,-56.8068
37.1,158.205,5.89436,0.264267,27.4267,0,-57.4271
37.2,158.494,5.93922,0.264223,27.4223,0,-58.0474
37.3,158.784,5.98408,0.264179,27.4179,0,-58.6677
37.4,159.073,6.02893,0.264135,27.4135,0,-59.288
37.5,159.362,6.07379,0.264091,27.4091,0,-59.9084
37.6,159.652,6.11865,0.264047,27.4047,0,-60.5287
37.7,159.941,6.16351,0.264003,27.4003,0,-61.149
37.8,160.23,6.20837,0.263959,27.3959,0,-61.7693
37.9,160.52,6.25323,0.263915,27.3915,0,-62.3896
38,160.809,6.29809,0.263871,27.3871,0,-63.0099
38.1,161.158,6.35588,0.26384,27.384,0,-63.8082
38.2,161.508,6.41366,0.26381,27.381,0,-64.6065
38.3,161.857,6.47144,0.26378,27.378,0,-65.4048
38.4,162.207,6.52923,0.263749,27.3749,0,-66.203
38.5,162.556,6.58701,0.263719,27.3719,0,-67.0013
38.6,162.905,6.64479,0.263688,27.3688,0,-67.7996
38.7,163.255,6.70258,0.263658,27.3658,0,-68.5979
38.8,163.604,6.76036,0.263627,27.3627,0,-69.3962
38.9,163.954,6.81814,0.263597,27.3597,0,-70.1945
39,164.303,6.87593,0.263567,27.3567,0,-70.9927
39.1,164.629,6.93361,0.263527,27.3527,0,-71.8034
39.2,164.955,6.99129,0.263488,27.3488,0,-72.614
39.3,165.282,7.04897,0.263448,27.3448,0,-73.4246
39.4,165.608,7.10665,0.263409,27.3409,0,-74.2352
39.5,165.934,7.16433,0.263369,27.3369,0,-75.0459
39.6,166.26,7.22201,0.26333,27.333,0,-75.8565
39.7,166.587,7.27969,0.263291,27.3291,0,-76.6671
39.8,166.913,7.33737,0.263251,27.3251,0,-77.4778
39.9,167.239,7.39505,0.263212,27.3212,0,-78.2884
40,167.565,7.45273,0.263172,27.3172,0,-79.099
40.1,167.839,7.50409,0.263115,27.3115,0,-79.8369
40.2,168.113,7.55546,0.263058,27.3058,0,-80.5747
