"Time","J1.w - Absolute angular velocity of component (= der(phi))","J2.w - Absolute angular velocity of component (= der(phi))","J3.w - Absolute angular velocity of component (= der(phi))","J4.w - Absolute angular velocity of component (= der(phi))"
0,10,0,0,0
0.001,9.99016,0.01,-2.93168e-15,-2.93177e-15
0.002,9.98063,0.02,7.4489e-15,7.44871e-15
0.003,9.97141,0.03,1.11647e-14,1.11644e-14
0.004,9.96251,0.0399999,1.03736e-14,1.03732e-14
0.005,9.95392,0.0499998,9.21485e-15,9.21423e-15
0.006,9.94564,0.0599996,1.28023e-14,1.28014e-14
0.007,9.93767,0.0699993,1.84575e-14,1.84565e-14
0.008,9.93,0.0799989,1.72917e-14,1.72906e-14
0.009,9.92264,0.0899985,1.56958e-14,1.56945e-14
0.01,9.91558,0.0999978,1.05749e-14,1.05734e-14
0.011,9.90882,0.109997,1.7597e-14,1.75954e-14
0.012,9.90236,0.119996,1.5668e-14,1.56662e-14
0.013,9.89618,0.129995,1.8846e-14,1.8844e-14
0.014,9.8903,0.139994,2.39531e-14,2.39508e-14
0.015,9.8847,0.149992,1.80411e-14,1.80386e-14
0.016,9.87938,0.15999,1.95954e-14,1.95927e-14
0.017,9.87434,0.169988,2.63678e-14,2.63648e-14
0.018,9.86957,0.179986,2.85605e-14,2.85573e-14
0.019,9.86506,0.189984,2.55351e-14,2.55316e-14
0.02,9.86081,0.199981,2.80054e-14,2.80016e-14
0.021,9.85682,0.209978,2.78388e-14,2.78347e-14
0.022,9.85307,0.219974,3.82472e-14,3.82428e-14
0.023,9.84957,0.229971,3.73035e-14,3.72988e-14
0.024,9.84631,0.239966,3.52496e-14,3.52446e-14
0.025,9.84327,0.249962,3.53051e-14,3.52999e-14
0.026,9.84045,0.259957,2.82552e-14,2.82496e-14
0.027,9.83786,0.269952,1.93179e-14,1.9312e-14
0.028,9.83547,0.279946,2.37588e-14,2.37526e-14
0.029,9.83328,0.28994,2.34257e-14,2.34192e-14
0.03,9.83128,0.299933,1.59872e-14,1.59804e-14
0.031,9.82947,0.309926,2.68674e-14,2.68602e-14
0.032,9.82783,0.319919,1.94844e-14,1.94769e-14
0.033,9.82637,0.329911,2.09832e-14,2.09754e-14
0.034,9.82506,0.339902,2.60902e-14,2.6082e-14
0.035,9.82391,0.349893,1.62093e-14,1.62007e-14
0.036,9.8229,0.359884,1.89293e-14,1.89204e-14
0.037,9.82202,0.369873,2.20379e-14,2.20286e-14
0.038,9.82127,0.379863,2.33147e-14,2.33051e-14
0.039,9.82063,0.389851,3.07532e-14,3.07432e-14
0.04,9.82011,0.399839,3.78586e-14,3.78483e-14
0.041,9.81968,0.409827,3.31957e-14,3.3185e-14
0.042,9.81934,0.419814,2.48135e-14,2.48025e-14
0.043,9.81907,0.4298,1.96509e-14,1.96396e-14
0.044,9.81888,0.439785,1.19904e-14,1.19787e-14
0.045,9.81875,0.44977,1.03251e-14,1.0313e-14
0.046,9.81866,0.459754,4.71845e-15,4.70597e-15
0.047,9.81862,0.469738,4.16334e-15,4.1505e-15
0.048,9.8186,0.47972,7.21645e-16,7.08448e-16
0.049,9.81861,0.489702,-3.71925e-15,-3.7328e-15
0.05,9.81863,0.499683,4.38538e-15,4.37146e-15
0.051,9.81864,0.509664,6.77236e-15,6.75808e-15
0.052,9.81865,0.519643,6.66134e-15,6.6467e-15
0.053,9.81864,0.529622,6.55032e-15,6.53531e-15
0.054,9.8186,0.5396,1.18794e-14,1.1864e-14
0.055,9.81853,0.549577,1.32117e-14,1.31959e-14
0.056,9.8184,0.559553,5.10703e-15,5.09094e-15
0.057,9.81822,0.569529,5.88418e-15,5.86775e-15
0.058,9.81797,0.579503,8.65974e-15,8.64296e-15
0.059,9.81764,0.589477,1.11022e-15,1.0931e-15
0.06,9.81722,0.599449,-6.10623e-15,-6.12369e-15
0.061,9.81671,0.609421,-7.32747e-15,-7.34527e-15
0.062,9.8161,0.619392,-1.36557e-14,-1.36739e-14
0.063,9.81536,0.629362,-1.19904e-14,-1.20089e-14
0.064,9.81451,0.639331,-1.22125e-14,-1.22312e-14
0.065,9.81352,0.649298,-1.76525e-14,-1.76716e-14
0.066,9.81239,0.659265,-1.75415e-14,-1.75609e-14
0.067,9.81111,0.669231,-2.39808e-14,-2.40004e-14
0.068,9.80967,0.679196,-3.0087e-14,-3.01069e-14
0.069,9.80807,0.689159,-3.09752e-14,-3.09954e-14
0.07,9.80629,0.699122,-2.93099e-14,-2.93304e-14
0.071,9.80432,0.709083,-2.25375e-14,-2.25583e-14
0.072,9.80216,0.719044,-1.77636e-14,-1.77846e-14
0.073,9.79981,0.729003,-1.43219e-14,-1.43431e-14
0.074,9.79725,0.738961,-1.32117e-14,-1.32331e-14
0.075,9.79447,0.748918,-1.4988e-14,-1.50096e-14
0.076,9.79147,0.758874,-1.04361e-14,-1.0458e-14
0.077,9.78825,0.768828,-6.66134e-15,-6.68354e-15
0.078,9.78479,0.778782,2.55351e-15,2.53108e-15
0.079,9.78109,0.788734,9.32587e-15,9.30321e-15
0.08,9.77714,0.798685,1.45439e-14,1.4521e-14
0.081,9.77294,0.808635,1.25455e-14,1.25224e-14
0.082,9.76848,0.818583,1.89848e-14,1.89614e-14
0.083,9.76376,0.82853,2.69784e-14,2.69548e-14
0.084,9.75877,0.838476,3.19744e-14,3.19507e-14
0.085,9.75351,0.84842,2.59792e-14,2.59552e-14
0.086,9.74796,0.858364,3.41949e-14,3.41707e-14
0.087,9.74213,0.868305,3.88578e-14,3.88335e-14
0.088,9.73602,0.878246,3.39728e-14,3.39483e-14
0.089,9.72962,0.888185,3.45279e-14,3.45032e-14
0.09,9.72292,0.898123,3.29736e-14,3.29488e-14
0.091,9.71592,0.908059,4.22995e-14,4.22745e-14
0.092,9.70863,0.917994,4.13003e-14,4.12751e-14
0.093,9.70103,0.927927,4.15223e-14,4.1497e-14
0.094,9.69312,0.937859,4.15223e-14,4.14968e-14
0.095,9.68491,0.94779,5.39568e-14,5.39312e-14
0.096,9.67639,0.957719,6.51701e-14,6.51442e-14
0.097,9.66756,0.967646,7.09433e-14,7.09172e-14
0.098,9.65842,0.977572,7.00551e-14,7.00288e-14
0.099,9.64897,0.987497,6.72795e-14,6.72531e-14
0.1,9.6392,0.99742,6.50591e-14,6.50325e-14
0.101,9.62912,1.00734,5.70655e-14,5.70387e-14
0.102,9.61873,1.01726,5.4623e-14,5.45961e-14
0.103,9.60803,1.02718,5.66214e-14,5.65944e-14
0.104,9.59701,1.0371,5.9508e-14,5.94809e-14
0.105,9.58569,1.04701,6.30607e-14,6.30335e-14
0.106,9.57406,1.05692,6.03961e-14,6.03689e-14
0.107,9.56212,1.06684,6.08402e-14,6.08129e-14
0.108,9.54987,1.07675,5.26246e-14,5.25972e-14
0.109,9.53733,1.08665,4.84057e-14,4.83783e-14
0.11,9.52448,1.09656,4.37428e-14,4.37153e-14
0.111,9.51134,1.10647,4.28546e-14,4.2827e-14
0.112,9.4979,1.11637,4.26326e-14,4.26049e-14
0.113,9.48417,1.12627,4.26326e-14,4.26048e-14
0.114,9.47016,1.13617,4.92939e-14,4.92662e-14
0.115,9.45586,1.14607,4.57412e-14,4.57134e-14
0.116,9.44128,1.15596,4.57412e-14,4.57134e-14
0.117,9.42644,1.16586,4.79616e-14,4.79338e-14
0.118,9.41132,1.17575,5.24025e-14,5.23748e-14
0.119,9.39594,1.18564,5.39568e-14,5.3929e-14
0.12,9.3803,1.19553,4.88498e-14,4.8822e-14
0.121,9.36441,1.20542,4.55191e-14,4.54913e-14
0.122,9.34827,1.2153,4.90719e-14,4.90439e-14
0.123,9.3319,1.22518,5.12923e-14,5.12642e-14
0.124,9.31528,1.23506,4.61853e-14,4.61571e-14
0.125,9.29845,1.24494,4.84057e-14,4.83773e-14
0.126,9.28139,1.25482,4.61853e-14,4.61569e-14
0.127,9.26412,1.2647,3.9968e-14,3.99395e-14
0.128,9.24664,1.27457,3.79696e-14,3.7941e-14
0.129,9.22897,1.28444,3.9968e-14,3.99393e-14
0.13,9.2111,1.29431,4.35207e-14,4.34919e-14
0.131,9.19305,1.30418,4.57412e-14,4.57123e-14
0.132,9.17483,1.31404,4.75175e-14,4.74885e-14
0.133,9.15644,1.3239,5.15143e-14,5.14852e-14
0.134,9.13789,1.33377,5.61773e-14,5.61481e-14
0.135,9.1192,1.34362,6.83897e-14,6.83605e-14
0.136,9.10036,1.35348,6.88338e-14,6.88045e-14
0.137,9.08139,1.36334,6.90559e-14,6.90264e-14
0.138,9.0623,1.37319,7.66054e-14,7.65759e-14
0.139,9.0431,1.38304,7.63833e-14,7.63538e-14
0.14,9.02379,1.39289,7.37188e-14,7.36892e-14
0.141,9.00439,1.40273,7.4607e-14,7.45773e-14
0.142,8.9849,1.41258,7.4607e-14,7.45772e-14
0.143,8.96533,1.42242,6.88338e-14,6.8804e-14
0.144,8.9457,1.43226,6.23945e-14,6.23646e-14
0.145,8.92601,1.44209,6.77236e-14,6.76936e-14
0.146,8.90628,1.45193,6.88338e-14,6.88038e-14
0.147,8.88651,1.46176,7.08322e-14,7.08022e-14
0.148,8.86671,1.47159,7.32747e-14,7.32446e-14
0.149,8.84689,1.48142,6.90559e-14,6.90257e-14
0.15,8.82707,1.49124,7.32747e-14,7.32445e-14
0.151,8.80725,1.50107,7.9714e-14,7.96837e-14
0.152,8.78744,1.51089,7.57172e-14,7.56869e-14
0.153,8.76765,1.52071,8.26006e-14,8.25702e-14
0.154,8.7479,1.53052,8.41549e-14,8.41244e-14
0.155,8.72818,1.54034,8.21565e-14,8.2126e-14
0.156,8.70852,1.55015,7.90479e-14,7.90173e-14
0.157,8.68892,1.55996,7.4607e-14,7.45764e-14
0.158,8.66939,1.56976,7.83817e-14,7.83511e-14
0.159,8.64994,1.57957,7.41629e-14,7.41321e-14
0.16,8.63058,1.58937,7.08322e-14,7.08014e-14
0.161,8.61132,1.59917,6.95e-14,6.94691e-14
0.162,8.59217,1.60896,6.81677e-14,6.81367e-14
0.163,8.57314,1.61876,6.72795e-14,6.72484e-14
0.164,8.55424,1.62855,6.92779e-14,6.92467e-14
0.165,8.53547,1.63834,6.81677e-14,6.81364e-14
0.166,8.51684,1.64812,6.63913e-14,6.636e-14
0.167,8.49837,1.65791,6.12843e-14,6.12528e-14
0.168,8.48007,1.66769,6.86118e-14,6.85802e-14
0.169,8.46193,1.67747,6.75016e-14,6.74699e-14
0.17,8.44397,1.68724,6.70575e-14,6.70256e-14
0.171,8.4262,1.69702,6.75016e-14,6.74696e-14
0.172,8.40863,1.70679,6.01741e-14,6.01419e-14
0.173,8.39126,1.71655,6.39488e-14,6.39165e-14
0.174,8.3741,1.72632,5.19584e-14,5.19259e-14
0.175,8.35715,1.73608,5.68434e-14,5.68107e-14
0.176,8.34044,1.74584,5.52891e-14,5.52562e-14
0.177,8.32395,1.7556,5.70655e-14,5.70323e-14
0.178,8.3077,1.76535,5.70655e-14,5.70321e-14
0.179,8.2917,1.7751,5.35127e-14,5.34792e-14
0.18,8.27595,1.78485,5.4845e-14,5.48112e-14
0.181,8.26045,1.7946,5.86198e-14,5.85857e-14
0.182,8.24522,1.80434,5.12923e-14,5.12579e-14
0.183,8.23025,1.81408,4.57412e-14,4.57065e-14
0.184,8.21556,1.82382,5.08482e-14,5.08133e-14
0.185,8.20115,1.83355,5.24025e-14,5.23672e-14
0.186,8.18702,1.84328,4.57412e-14,4.57055e-14
0.187,8.17317,1.85301,4.90719e-14,4.90358e-14
0.188,8.15962,1.86274,4.70735e-14,4.70369e-14
0.189,8.14636,1.87246,4.86278e-14,4.85908e-14
0.19,8.13341,1.88218,5.06262e-14,5.05887e-14
0.191,8.12075,1.8919,5.68434e-14,5.68055e-14
0.192,8.1084,1.90161,5.4845e-14,5.48067e-14
0.193,8.09635,1.91132,6.17284e-14,6.16896e-14
0.194,8.08462,1.92103,5.83977e-14,5.83585e-14
0.195,8.07319,1.93073,6.08402e-14,6.08005e-14
0.196,8.06208,1.94043,5.63993e-14,5.63592e-14
0.197,8.05128,1.95013,5.63993e-14,5.63587e-14
0.198,8.0408,1.95983,5.63993e-14,5.63582e-14
0.199,8.03064,1.96952,6.28386e-14,6.2797e-14
0.2,8.02079,1.97921,6.08402e-14,6.07981e-14
0.201,8.01127,1.9889,6.57252e-14,6.56826e-14
0.202,8.00205,1.99858,6.63913e-14,6.63482e-14
0.203,7.99316,2.00826,6.75016e-14,6.74587e-14
0.204,7.98458,2.01794,6.30607e-14,6.30181e-14
0.205,7.97631,2.02761,5.63993e-14,5.6357e-14
0.206,7.96836,2.03728,5.24025e-14,5.23605e-14
0.207,7.96072,2.04695,5.06262e-14,5.05845e-14
0.208,7.95339,2.05661,5.50671e-14,5.50256e-14
0.209,7.94637,2.06627,5.9952e-14,5.99109e-14
0.21,7.93965,2.07593,6.17284e-14,6.16875e-14
0.211,7.93324,2.08558,5.86198e-14,5.85791e-14
0.212,7.92712,2.09523,6.39488e-14,6.39084e-14
0.213,7.9213,2.10488,6.43929e-14,6.43527e-14
0.214,7.91577,2.11453,6.26166e-14,6.25766e-14
0.215,7.91053,2.12417,6.03961e-14,6.03563e-14
0.216,7.90557,2.13381,6.08402e-14,6.08006e-14
0.217,7.90089,2.14344,6.43929e-14,6.43535e-14
0.218,7.89649,2.15307,6.52811e-14,6.52419e-14
0.219,7.89235,2.1627,6.79456e-14,6.79066e-14
0.22,7.88847,2.17232,6.70575e-14,6.70185e-14
0.221,7.88486,2.18194,6.43929e-14,6.43541e-14
0.222,7.88149,2.19156,6.83897e-14,6.83511e-14
0.223,7.87837,2.20117,6.9722e-14,6.96835e-14
0.224,7.87549,2.21078,7.32747e-14,7.32363e-14
0.225,7.87284,2.22039,7.77156e-14,7.76773e-14
0.226,7.87042,2.22999,7.72715e-14,7.72333e-14
0.227,7.86822,2.23959,7.99361e-14,7.98979e-14
0.228,7.86622,2.24919,8.08242e-14,8.07862e-14
0.229,7.86444,2.25878,8.03801e-14,8.03422e-14
0.23,7.86284,2.26837,8.17124e-14,8.16745e-14
0.231,7.86144,2.27796,8.70415e-14,8.70037e-14
0.232,7.86021,2.28754,9.19265e-14,9.18888e-14
0.233,7.85916,2.29712,8.70415e-14,8.70038e-14
0.234,7.85827,2.30669,8.83738e-14,8.83362e-14
0.235,7.85754,2.31627,8.92619e-14,8.92244e-14
0.236,7.85695,2.32583,9.41469e-14,9.41094e-14
0.237,7.8565,2.3354,9.28146e-14,9.27772e-14
0.238,7.85618,2.34496,9.54792e-14,9.54418e-14
0.239,7.85598,2.35451,9.72555e-14,9.72182e-14
0.24,7.85588,2.36407,9.76996e-14,9.76623e-14
0.241,7.85589,2.37362,9.85878e-14,9.85505e-14
0.242,7.85599,2.38316,9.32587e-14,9.32214e-14
0.243,7.85617,2.3927,9.14824e-14,9.1445e-14
0.244,7.85643,2.40224,8.65974e-14,8.656e-14
0.245,7.85674,2.41178,8.83738e-14,8.83364e-14
0.246,7.85711,2.42131,8.92619e-14,8.92245e-14
0.247,7.85753,2.43083,9.05942e-14,9.05568e-14
0.248,7.85797,2.44035,9.28146e-14,9.27772e-14
0.249,7.85844,2.44987,9.32587e-14,9.32212e-14
0.25,7.85893,2.45939,9.01501e-14,9.01126e-14
0.251,7.85941,2.4689,8.57092e-14,8.56717e-14
0.252,7.85989,2.47841,8.70415e-14,8.70039e-14
0.253,7.86036,2.48791,9.14824e-14,9.14448e-14
0.254,7.8608,2.49741,8.88178e-14,8.87802e-14
0.255,7.8612,2.5069,8.61533e-14,8.61157e-14
0.256,7.86156,2.5164,8.61533e-14,8.61156e-14
0.257,7.86187,2.52588,8.88178e-14,8.87802e-14
0.258,7.86211,2.53537,8.9706e-14,8.96683e-14
0.259,7.86227,2.54485,8.30447e-14,8.3007e-14
0.26,7.86235,2.55432,8.03801e-14,8.03424e-14
0.261,7.86234,2.56379,7.63833e-14,7.63456e-14
0.262,7.86223,2.57326,7.59393e-14,7.59015e-14
0.263,7.86201,2.58272,7.90479e-14,7.90101e-14
0.264,7.86166,2.59218,7.50511e-14,7.50133e-14
0.265,7.86118,2.60164,7.28306e-14,7.27929e-14
0.266,7.86057,2.61109,7.37188e-14,7.36811e-14
0.267,7.85981,2.62054,7.41629e-14,7.41252e-14
0.268,7.85889,2.62998,7.72715e-14,7.72338e-14
0.269,7.85781,2.63942,8.08242e-14,8.07866e-14
0.27,7.85656,2.64885,8.26006e-14,8.2563e-14
0.271,7.85512,2.65828,8.12683e-14,8.12307e-14
0.272,7.8535,2.66771,7.68274e-14,7.67899e-14
0.273,7.85168,2.67713,7.59393e-14,7.59017e-14
0.274,7.84966,2.68655,7.9492e-14,7.94545e-14
0.275,7.84743,2.69596,7.68274e-14,7.679e-14
0.276,7.84498,2.70537,7.59393e-14,7.59019e-14
0.277,7.8423,2.71478,8.12683e-14,8.1231e-14
0.278,7.8394,2.72418,7.63833e-14,7.63461e-14
0.279,7.83625,2.73358,7.68274e-14,7.67903e-14
0.28,7.83286,2.74297,7.9492e-14,7.94549e-14
0.281,7.82923,2.75236,8.21565e-14,8.21196e-14
0.282,7.82533,2.76174,7.99361e-14,7.98992e-14
0.283,7.82118,2.77112,7.99361e-14,7.98993e-14
0.284,7.81676,2.78049,7.77156e-14,7.7679e-14
0.285,7.81207,2.78986,7.23865e-14,7.23501e-14
0.286,7.8071,2.79923,6.88338e-14,6.87976e-14
0.287,7.80185,2.80859,6.79456e-14,6.79095e-14
0.288,7.79632,2.81795,6.79456e-14,6.79097e-14
0.289,7.7905,2.8273,6.70575e-14,6.70217e-14
0.29,7.78439,2.83665,7.01661e-14,7.01305e-14
0.291,7.77799,2.84599,6.75016e-14,6.74662e-14
0.292,7.77129,2.85533,6.61693e-14,6.61341e-14
0.293,7.76429,2.86467,6.66134e-14,6.65784e-14
0.294,7.75699,2.874,6.9722e-14,6.96873e-14
0.295,7.74938,2.88333,6.92779e-14,6.92434e-14
0.296,7.74147,2.89265,6.66134e-14,6.65791e-14
0.297,7.73325,2.90196,6.61693e-14,6.61353e-14
0.298,7.72472,2.91128,6.9722e-14,6.96883e-14
0.299,7.71588,2.92058,7.14984e-14,7.1465e-14
0.3,7.70674,2.92989,7.14984e-14,7.14652e-14
0.301,7.69728,2.93918,6.52811e-14,6.52483e-14
0.302,7.68752,2.94848,6.75016e-14,6.74691e-14
0.303,7.67744,2.95777,7.19425e-14,7.19103e-14
0.304,7.66706,2.96705,6.61693e-14,6.61375e-14
0.305,7.65637,2.97633,6.70575e-14,6.70261e-14
0.306,7.64538,2.98561,6.66134e-14,6.65824e-14
0.307,7.63408,2.99488,6.79456e-14,6.79151e-14
0.308,7.62248,3.00414,6.26166e-14,6.25866e-14
0.309,7.61058,3.0134,6.17284e-14,6.16989e-14
0.31,7.59838,3.02266,6.52811e-14,6.52522e-14
0.311,7.58589,3.03191,6.12843e-14,6.12559e-14
0.312,7.57311,3.04116,5.81757e-14,5.81478e-14
0.313,7.56004,3.0504,5.68434e-14,5.68162e-14
0.314,7.54669,3.05964,5.81757e-14,5.8149e-14
0.315,7.53306,3.06887,5.72875e-14,5.72614e-14
0.316,7.51915,3.0781,5.77316e-14,5.77061e-14
0.317,7.50498,3.08732,5.68434e-14,5.68186e-14
0.318,7.49054,3.09654,5.59552e-14,5.593e-14
0.319,7.47583,3.10575,5.63993e-14,5.63746e-14
0.32,7.46088,3.11496,5.63993e-14,5.63735e-14
0.321,7.44567,3.12416,5.06262e-14,5.06139e-14
0.322,7.43022,3.13336,4.92939e-14,4.92679e-14
0.323,7.41453,3.14255,4.9738e-14,4.97252e-14
0.324,7.39861,3.15174,4.70735e-14,4.70605e-14
0.325,7.38247,3.16092,5.01821e-14,5.01552e-14
0.326,7.36611,3.1701,5.15143e-14,5.14875e-14
0.327,7.34954,3.17927,5.28466e-14,5.28733e-14
0.328,7.33277,3.18844,5.37348e-14,5.37887e-14
0.329,7.3158,3.19761,5.06262e-14,5.06951e-14
0.33,7.29865,3.20676,5.19584e-14,5.20258e-14
0.331,7.28131,3.21592,5.24025e-14,5.24694e-14
0.332,7.26381,3.22506,4.61853e-14,4.61436e-14
0.333,7.24614,3.23421,4.75175e-14,4.74829e-14
0.334,7.22832,3.24335,4.88498e-14,4.87891e-14
0.335,7.21035,3.25248,4.88498e-14,4.87064e-14
0.336,7.19224,3.26161,4.79616e-14,4.78994e-14
0.337,7.174,3.27073,4.61853e-14,4.60423e-14
0.338,7.15565,3.27985,4.44089e-14,4.42653e-14
0.339,7.13718,3.28896,4.4853e-14,4.47139e-14
0.34,7.11861,3.29806,3.95239e-14,3.93815e-14
0.341,7.09995,3.30717,3.5083e-14,3.49415e-14
0.342,7.08121,3.31626,3.24185e-14,3.22739e-14
0.343,7.0624,3.32535,3.10862e-14,3.09432e-14
0.344,7.04352,3.33444,3.19744e-14,3.18376e-14
0.345,7.02459,3.34352,2.88658e-14,2.87289e-14
0.346,7.00561,3.3526,3.01981e-14,3.0096e-14
0.347,6.9866,3.36167,2.79776e-14,2.78715e-14
0.348,6.96757,3.37073,2.9754e-14,2.96446e-14
0.349,6.94852,3.37979,3.06422e-14,3.05405e-14
0.35,6.92947,3.38885,3.33067e-14,3.32133e-14
0.351,6.91042,3.39789,3.41949e-14,3.40975e-14
0.352,6.89139,3.40694,3.10862e-14,3.09907e-14
0.353,6.87238,3.41598,2.88658e-14,2.87748e-14
0.354,6.85341,3.42501,2.84217e-14,2.83327e-14
0.355,6.83448,3.43404,3.06422e-14,3.05537e-14
0.356,6.81561,3.44306,3.06422e-14,3.05455e-14
0.357,6.7968,3.45208,3.5083e-14,3.49862e-14
0.358,6.77807,3.46109,3.64153e-14,3.6316e-14
0.359,6.75942,3.47009,3.68594e-14,3.67607e-14
0.36,6.74086,3.47909,3.55271e-14,3.54304e-14
0.361,6.7224,3.48809,3.86358e-14,3.8544e-14
0.362,6.70406,3.49708,3.81917e-14,3.80927e-14
0.363,6.68584,3.50606,3.77476e-14,3.7649e-14
0.364,6.66775,3.51504,3.59712e-14,3.57751e-14
0.365,6.64979,3.52401,3.24185e-14,3.21935e-14
0.366,6.63199,3.53298,3.15303e-14,3.12074e-14
0.367,6.61434,3.54194,2.9754e-14,2.94312e-14
0.368,6.59686,3.5509,3.41949e-14,3.38732e-14
0.369,6.57955,3.55985,3.4639e-14,3.4317e-14
0.37,6.56242,3.56879,3.81917e-14,3.77716e-14
0.371,6.54549,3.57773,3.19744e-14,3.14561e-14
0.372,6.52875,3.58666,3.55271e-14,3.5024e-14
0.373,6.51222,3.59559,3.5083e-14,3.45793e-14
0.374,6.4959,3.60451,3.68594e-14,3.63717e-14
0.375,6.4798,3.61343,3.73035e-14,3.68159e-14
0.376,6.46393,3.62234,3.5083e-14,3.46443e-14
0.377,6.4483,3.63125,3.4639e-14,3.42329e-14
0.378,6.43291,3.64015,3.19744e-14,3.1552e-14
0.379,6.41776,3.64904,3.15303e-14,3.1157e-14
0.38,6.40287,3.65793,2.79776e-14,2.76045e-14
0.381,6.38824,3.66681,2.44249e-14,2.40352e-14
0.382,6.37387,3.67569,2.93099e-14,3.07863e-14
0.383,6.35977,3.68456,2.79776e-14,2.94377e-14
0.384,6.34596,3.69342,3.28626e-14,3.43218e-14
0.385,6.33242,3.70228,3.10862e-14,3.2546e-14
0.386,6.31917,3.71113,2.53131e-14,2.67733e-14
0.387,6.3062,3.71998,2.26485e-14,2.41092e-14
0.388,6.29353,3.72882,2.35367e-14,2.49979e-14
0.389,6.28116,3.73766,2.30926e-14,2.45543e-14
0.39,6.2691,3.74649,2.30926e-14,2.45548e-14
0.391,6.25733,3.75531,2.66454e-14,2.81079e-14
0.392,6.24588,3.76413,2.62013e-14,2.76643e-14
0.393,6.23473,3.77294,2.66454e-14,2.81088e-14
0.394,6.2239,3.78175,2.35367e-14,2.50006e-14
0.395,6.21338,3.79055,2.39808e-14,2.54451e-14
0.396,6.20317,3.79934,2.57572e-14,2.72218e-14
0.397,6.19329,3.80813,2.88658e-14,3.03309e-14
0.398,6.18372,3.81691,2.9754e-14,3.12194e-14
0.399,6.17447,3.82569,2.93099e-14,3.07757e-14
0.4,6.16555,3.83446,3.33067e-14,3.14422e-14
0.401,6.15694,3.83322,0.01,3.04097e-14
0.402,6.14865,3.83198,0.02,3.10758e-14
0.403,6.14069,3.83073,0.03,2.99656e-14
0.404,6.13304,3.82948,0.04,3.19675e-14
0.405,6.12571,3.82822,0.05,2.9525e-14
0.406,6.11869,3.82695,0.06,3.10793e-14
0.407,6.11199,3.82568,0.07,2.91017e-14
0.408,6.10561,3.8244,0.08,2.79915e-14
0.409,6.09953,3.82311,0.09,2.81997e-14
0.41,6.09376,3.82182,0.1,2.84495e-14
0.411,6.0883,3.82052,0.11,3.0892e-14
0.412,6.08314,3.81922,0.12,3.33622e-14
0.413,6.07827,3.81791,0.13,3.2252e-14
0.414,6.0737,3.81659,0.14,3.2474e-14
0.415,6.06943,3.81527,0.15,3.31402e-14
0.416,6.06543,3.81394,0.16,3.19744e-14
0.417,6.06172,3.81261,0.17,2.99205e-14
0.418,6.05829,3.81127,0.18,3.05589e-14
0.419,6.05513,3.80992,0.19,3.34455e-14
0.42,6.05223,3.80857,0.2,3.31957e-14
0.421,6.04959,3.80721,0.21,3.15858e-14
0.422,6.04721,3.80584,0.22,3.2252e-14
0.423,6.04508,3.80447,0.23,3.25295e-14
0.424,6.04319,3.80309,0.24,3.27516e-14
0.425,6.04153,3.8017,0.25,2.84217e-14
