"time","tempc@tpf_st_chamber","press@tpf_st_chamber","out2@division","tau@tpf_st_chamber","dm2@tpf_pump","torque@expseu_"
0,19.90395669635,0.02337,0.24,25,0.13032082289032,0
1,22.56155322048,0.02750597324423,0.24768547750539,25.768547750539,0.089520187219016,0
2,29.44485336712,0.041314685138519,0.25219112255465,26.219112255465,0.042530036153166,0.73804092481557
3,35.559906915931,0.05827808962498,0.2545437294316,26.45437294316,0.017921208631993,0.87180604628996
4,41.336868151553,0.07953255241038,0.25578614108042,26.578614108042,0.0048830540651718,0.997030451667
5,46.981965793237,0.10644421110969,0.25648709765973,26.648709765973,0,1.1109638158347
6,52.632504886941,0.14086503969013,0.25715951543509,26.715951543509,0,1.2078899939634
7,58.304014933027,0.18457483175647,0.2578923112317,26.789231123171,0,1.2762122111554
8,63.990381077852,0.23951048582297,0.25868163400238,26.868163400238,0,1.300844610125
9,69.68541443582,0.30786282123877,0.25952376736355,26.952376736355,0,1.2636017476138
10,75.383527603211,0.39208739602952,0.26041519209987,27.041519209987,0,1.1430443264175
11,81.07933276256,0.49490060089396,0.26135250683092,27.135250683092,0,0.91436035138225
12,86.767685280984,0.61927378679171,0.26233240963199,27.233240963199,0,0.5491261738899
13,92.443659805706,0.76842072722006,0.26335166042813,27.335166042813,0,0.015568660700645
14,98.093707721959,0.94547811959997,0.26440081657063,27.440081657063,0,-0.90873817715822
15,103.72054785031,1.154212529865,0.26548154026512,27.548154026512,0,-2.1415596786737
16,109.3189371926,1.3983355525443,0.26658998276612,27.658998276612,0,-3.7418075958518
17,114.88275948921,1.6815991888625,0.26772141806996,27.772141806996,0,-5.8077938485258
18,120.40473886252,2.0076857733591,0.26886996979973,27.886996979973,0,-8.4218558029298
19,125.87583065315,2.3800403810011,0.27002799962078,28.002799962078,0,-11.67392228739
20,131.27966406383,2.8012324052722,0.27118423437096,28.118423437095,0,-15.653784963162
21,136.50403951983,3.264096809085,0.27230269183223,28.230269183223,0,-20.362999275003
22,141.43970214123,3.7564361439459,0.27334323089733,28.334323089733,0,-25.717589234396
23,145.97233261228,4.2597509855237,0.27425996176892,28.425996176892,0,-31.51782249362
24,149.99143371839,4.7501485506548,0.2750042980497,28.50042980497,0,-37.456699140996
25,153.40117448479,5.2008158562098,0.27552963844678,28.552963844679,0,-43.162721446695
26,156.1306059715,5.5856954765021,0.27579690147669,28.57969014767,0,-48.258383129895
27,158.14135013847,5.8835309534897,0.27577985105649,28.577985105649,0,-52.417519595841
28,159.43128202814,6.0811786477607,0.27546894867295,28.546894867294,0,-55.414369194327
29,160.0333659857,6.1752264605674,0.27487265306172,28.487265306171,0,-57.154380815085
30,160.01003864763,6.1715611800908,0.27401581811017,28.401581811018,0,-57.676406149412
31,159.44405529219,6.0831619472327,0.27293556780684,28.293556780682,0,-57.126473235811
32,158.42863853488,5.9271000273973,0.27167616163128,28.167616163129,0,-55.711998711936
33,157.05784392559,5.7215051386771,0.27028337713419,28.02833771342,0,-53.670175412996
34,155.41929102836,5.4832679490383,0.26880039343046,27.880039343045,0,-51.221637804163
35,153.76425222336,5.2507528516541,0.26730834815793,27.730834815793,0,-48.844066269369
36,153.25599102419,5.1809543426699,0.26611143915444,27.611143915443,0,-48.456650174911
37,154.48239078371,5.3506543038531,0.2653498848472,27.534988484718,0,-51.020467065828
38,157.51063877262,5.7887761478707,0.26503232601196,27.503232601195,0,-56.981592645549
39,161.13074093885,6.3496213249212,0.26484619773024,27.484619773023,0,-64.626740004153
40,164.5135607334,6.9120418647788,0.26456822587861,27.45682258786,0,-72.435960234456
41,167.37170815529,7.417480679544,0.26411163822283,27.411163822283,0,-79.613595207775
42,169.64756537884,7.8405604117658,0.26345046359457,27.345046359459,0,-85.766040979219
43,171.38126325958,8.1755076673099,0.26258802877925,27.258802877923,0,-90.762569135347
44,172.65166294703,8.4280611653507,0.26154235090076,27.154235090074,0,-94.642464142708
45,173.54751891401,8.6098371688778,0.26033809559596,27.033809559597,0,-97.541588789872
46,174.15318985138,8.7344787951839,0.25900169978076,26.900169978074,0,-99.636598391292
47,174.54172466458,8.8151837355099,0.25755830748165,26.755830748165,0,-101.10633102059
48,174.77087043403,8.8630565452318,0.25603435356191,26.603435356191,0.00085152912211177,-102.1060174042
49,174.79204221753,8.867490070382,0.25468133301266,26.468133301269,0.0061955435482038,-102.50216790729
50,174.62346456896,8.8322372154575,0.25360295663856,26.360295663857,0.010456741576783,-102.33930651036
51,174.34275466943,8.7737811743376,0.25275649513674,26.275649513673,0.013803187662489,-101.849010526
52,174.00988928829,8.7048608319035,0.25210371483941,26.210371483943,0.016385384677283,-101.21103150495
53,173.66569395173,8.6340454049086,0.25160980961842,26.160980961842,0.018340446460365,-100.54557483763
54,173.33502828723,8.5664433651769,0.25124364273776,26.124364273774,0.019791107919596,-99.923446454312
55,173.03101670108,8.5046605373949,0.25097812024642,26.097812024643,0.020844222257588,-99.379955542238
56,172.75894514227,8.449668082483,0.25079036741916,26.079036741917,0.021590040994685,-98.927416766356
57,172.51931205178,8.4014656015354,0.25066158029367,26.066158029367,0.022102781864367,-98.564659348037
58,172.30998972759,8.3595384374211,0.25057666030841,26.057666030842,0.022442057509067,-98.283522930133
59,172.12762037402,8.3231450623769,0.25052376132348,26.052376132347,0.022654653625397,-98.072906889896
60,171.96847437344,8.2914886699532,0.25049374912474,26.049374912472,0.022776656056427,-97.921160796345
61,171.82895701472,8.2638151533164,0.25047973085352,26.047973085354,0.022835303342005,-97.817379073392
62,171.70578401886,8.2394443797738,0.25047651217876,26.047651217877,0.022851129093605,-97.751916894852
63,171.59612517479,8.2177953970859,0.25048032439435,26.048032439437,0.022839035634918,-97.71659316624
64,171.49759310335,8.1983815092919,0.25048847159078,26.048847159077,0.022809686815613,-97.70468394587
65,171.40822633347,8.1808048903678,0.25049904849724,26.049904849723,0.022770622002146,-97.710713249944
66,171.32643513278,8.1647443922584,0.2505107451623,26.05107451623,0.022727027298062,-97.730349262869
67,171.25094709717,8.1499437442239,0.25052268934062,26.052268934064,0.022682357999819,-97.760198047725
68,171.18074905976,8.1361993570774,0.25053432347361,26.053432347361,0.022638824645321,-97.797617541758
69,171.11503110508,8.1233487868278,0.25054531345124,26.054531345124,0.022597753761184,-97.840572164208
70,171.05315123338,8.1112634177908,0.25055547808629,26.055547808629,0.022559866582431,-97.88746274933
71,170.99460118791,8.0998414908001,0.25056474288227,26.056474288225,0.022525461857953,-97.937102441271
72,170.93897729629,8.0890021995856,0.25057310223587,26.057310223585,0.022494565363686,-97.988578874319
73,170.88595143844,8.0786798794121,0.25058059273143,26.058059273143,0.022467035734031,-98.041195897694
74,170.83526123161,8.0688219862357,0.25058727626867,26.058727626866,0.022442631019848,-98.09442463342
75,170.7866915513,8.0593854186302,0.25059322696312,26.05932269631,0.022421060701903,-98.147862967767
76,170.7400648365,8.0503345739666,0.25059852315509,26.059852315509,0.022402017307548,-98.201205473544
77,170.69523260142,8.041639654794,0.25060324212873,26.060324212871,0.022385197353808,-98.254220626979
78,170.65206871243,8.0332753308012,0.25060745686792,26.060745686791,0.022370314206222,-98.306730983933
79,170.61046439501,8.0252197455352,0.25061123429442,26.061123429444,0.022357105085042,-98.358600790355
80,170.57032398007,8.0174536731798,0.25061463300361,26.061463300362,0.022345340067378,-98.409710208017
81,170.53156439914,8.0099604053929,0.25061770805342,26.061770805344,0.022334803046299,-98.459998099738
82,170.49410716077,8.0027241879687,0.25062050483727,26.062050483725,0.022325316219287,-98.509399632044
83,170.45788581862,7.9957316547724,0.25062306413765,26.062306413765,0.022316719833731,-98.557853553898
84,170.42283875416,7.9889704243025,0.25062542027344,26.062542027343,0.022308879691209,-98.605321837588
85,170.38890946759,7.9824291497195,0.2506276030031,26.062760300311,0.022301679577419,-98.651787568059
86,170.35604629975,7.9760974595112,0.25062963750261,26.06296375026,0.022295021363807,-98.697227004026
87,170.32420080907,7.9699656399125,0.25063154516363,26.063154516363,0.022288821832648,-98.741625014204
88,170.29332755304,7.9640245890948,0.25063334379127,26.063334379125,0.022283011940511,-98.78497223781
89,170.2633838285,7.9582657636734,0.25063504853056,26.063504853057,0.022277533109317,-98.827262200192
90,170.23432929978,7.9526811041143,0.25063667212463,26.063667212463,0.022272336222277,-98.868490846297
91,170.20612588687,7.9472630105563,0.25063822524818,26.063822524819,0.022267380308392,-98.908656674814
92,170.17873788371,7.9420043630741,0.25063971696312,26.063971696313,0.022262630737199,-98.947761584176
93,170.15213202574,7.9368985322715,0.25064115500168,26.064115500167,0.022258058097055,-98.985810664078
94,170.12627711552,7.931939305273,0.25064254597209,26.064254597208,0.022253637386008,-99.022811978847
95,170.10114396951,7.9271208736005,0.25064389556253,26.064389556253,0.02224934720554,-99.058776433539
96,170.07670339311,7.9224374434704,0.25064520745532,26.064520745534,0.022245174118115,-99.093719797537
97,170.05293028501,7.9178840209742,0.25064648697172,26.064648697172,0.022241098043204,-99.127641616195
98,170.02979961251,7.9134556392442,0.25064773781354,26.064773781353,0.02223710532475,-99.160569833609
99,170.00728783232,7.909147629646,0.25064896278495,26.064896278497,0.022233185844184,-99.192514336849
100,169.98537246093,7.9049555384134,0.25065016432016,26.065016432015,0.022229330908451,-99.223490982336
